tiempo;valor;maker;bp;dx;sq;ma
3.45;2.490234375;0;0.306363336;-21.58832377;466.0557231;148.6448686
75.445;2.485351563;0;0.119199247;-6.969523129;48.57425264;37.90325361
75.45;2.397460938;0;0.084351632;-9.590404829;91.97586479;36.95062906
95.065;2.377929688;0;0.284367266;-6.437369434;41.43972523;53.5881922
134.13;2.36328125;0;0.288040416;-5.485736478;30.09330471;47.94978398
82.16;2.348632813;0;0.287376096;-6.155829227;37.89423347;44.59709704
72.225;2.338867188;0;0.299660934;-3.948488286;15.59055975;48.33653097
4.18;2.333984375;0;0.268048151;-0.505112411;0.255138548;38.6761714
4.185;2.329101563;0;0.265522589;-6.409338751;41.07962323;39.72074074
17.045;2.32421875;0;0.284564237;-6.510461918;42.38611439;43.61033585
156.345;2.319335938;0;0.275543229;-6.545235345;42.84010572;42.608405
63.835;2.314453125;0;0.298139148;-4.677702827;21.88090373;47.45094221
30.065;2.3046875;0;0.26006165;-7.581632015;57.48114401;40.30225436
61.94;2.3046875;0;0.289964562;-5.55687378;30.87884621;46.91468756
139.995;2.3046875;1;0.293467654;-5.823345852;33.91135692;46.85870025
5.045;2.299804688;0;0.267892597;-4.672525066;21.83249049;14.47427463
76.215;2.294921875;0;0.299307582;-25.13278191;631.6567267;164.7327253
0.69;2.28515625;0;0.302729253;-5.719122285;32.70835971;51.18452217
72.23;2.28515625;0;0.279918493;-10.34793623;107.0797841;51.78959623
81.335;2.280273438;0;0.284514845;-7.727984874;59.72175022;47.65106691
83.13;2.275390625;0;0.270846665;-8.559866404;73.27131286;44.7328989
9.94;2.270507813;0;0.278572652;-5.099811155;26.00807382;41.42789288
68.635;2.270507813;0;0.295552947;-3.623817128;13.13205058;46.92671512
88.095;2.270507813;1;0.284367694;-7.483703798;56.00582253;47.35076757
90.975;2.270507813;0;0.291329846;-2.843562695;8.085848803;45.30261463
163.16;2.270507813;0;0.286917109;-5.21115041;27.1560886;44.36814674
35.415;2.265625;0;0.284594728;-5.808778248;33.74190473;43.5832538
75.93;2.265625;0;0.071218227;-12.37382554;153.1115586;141.8332169
115.37;2.265625;0;0.290453071;-5.706907077;32.56878839;43.88624075
151.495;2.265625;0;0.286055633;-2.970605946;8.824499688;44.71752589
108.84;2.260742188;0;0.264977768;-6.168356576;38.04862285;37.37597235
5.96;2.255859375;0;0.278313754;-6.211446372;38.58206604;44.1700592
95.07;2.255859375;0;0.252180418;-12.40628359;153.9158724;58.71872128
7.905;2.250976563;0;0.275942035;-3.949765992;15.60065139;40.25431907
45.36;2.250976563;0;0.270196246;-4.252625629;18.08482474;41.47408875
135.145;2.250976563;0;0.26208795;-9.2958047;86.41198501;38.17751289
159.32;2.250976563;0;0.27427855;-5.46867675;29.9064254;39.63471532
50.28;2.24609375;0;0.271019495;-8.063259116;65.01614757;41.12559759
97.32;2.24609375;0;0.268259389;-3.325284098;11.05751433;37.84929396
122.86;2.24609375;1;0.299959626;-3.907143785;15.26577256;48.81232964
152.465;2.24609375;0;0.269261617;-4.982424283;24.82455173;39.73508078
59.005;2.241210938;0;0.246048564;-3.648740002;13.3133036;30.98797917
83.125;2.241210938;0;0.282955615;-2.421790099;5.865067283;42.48777973
84.175;2.236328125;0;0.26900054;-5.657714568;32.00973413;38.2858087
150.555;2.236328125;0;0.26602405;-3.771795405;14.22644058;38.14304623
21.135;2.231445313;0;0.262931319;-3.541270636;12.54059772;35.86682604
28.94;2.231445313;0;0.283130815;-3.773782823;14.24143679;41.83897145
30.07;2.231445313;0;0.22215349;-12.91400791;166.7716002;45.8613077
32.27;2.231445313;0;0.25721057;-5.987486846;35.84999873;36.52249198
55.02;2.231445313;0;0.37596723;-1.956539751;3.828047799;56.3708136
99.56;2.231445313;0;0.283210694;-2.155817941;4.647550995;42.71140024
135.14;2.231445313;0;0.278239258;-3.230261648;10.43459032;35.29711339
48.36;2.2265625;0;0.262512375;-5.728149694;32.81169891;35.64021918
58.03;2.2265625;1;0.251363498;-5.185224651;26.88655468;33.72939734
116.29;2.2265625;0;0.27582458;-4.787095363;22.91628201;39.39880748
157.33;2.2265625;0;0.266928916;-5.794977148;33.58176014;38.9648073
22.215;2.221679688;0;0.275664976;-3.74927964;14.05709782;38.39827983
75.485;2.221679688;0;-0.138805163;5.724210351;32.76658414;31.24052307
107.8;2.221679688;0;0.265769588;-3.763675121;14.16525042;36.82522299
161.255;2.221679688;0;0.27578836;-4.889678245;23.90895334;40.04648678
15.08;2.216796875;0;0.239803907;-3.246796304;10.54168624;29.9257091
20.08;2.216796875;0;0.235866083;-3.345333112;11.19125363;29.93964821
88.09;2.216796875;0;0.28964515;-1.055491214;1.114061702;45.81672673
112.735;2.216796875;0;0.277266402;-2.844618882;8.091856584;39.42520288
131.12;2.216796875;0;0.281499097;-3.841922762;14.76037051;41.2750649
38.56;2.211914063;0;0.267940795;-5.734420808;32.88358201;39.70516586
39.575;2.211914063;0;0.270686681;-5.930174862;35.1669739;40.47777039
68.64;2.211914063;0;0.277433861;-9.866576946;97.34934063;49.96044056
76.645;2.211914063;0;0.189176775;-7.728431496;59.72865339;49.2108016
91.92;2.211914063;0;0.277937576;-7.369193755;54.3050166;44.99525205
99.565;2.211914063;1;0.272431604;-8.31512016;69.14122328;44.82207578
101.71;2.211914063;0;0.277539237;-4.242340986;17.99745704;39.61393094
102.77;2.211914063;0;0.270557373;-5.632359004;31.72346795;39.43378279
111.805;2.211914063;0;0.268897631;-6.125786643;37.525262;38.56162515
137.145;2.211914063;0;0.259623936;-4.541417551;20.62447337;36.57741196
147.66;2.211914063;0;0.25654445;-4.818726761;23.22012759;34.22251597
129.07;2.20703125;1;0.263005245;-9.021449689;81.3865545;42.33568333
138.11;2.20703125;0;0.266831479;-5.91022236;34.93072835;38.53460632
144.75;2.20703125;0;0.272652716;-2.621605079;6.87281319;38.6416482
149.605;2.20703125;0;0.283296918;-3.555273228;12.63996773;42.32514557
19.02;2.202148438;0;0.288347649;-3.826018863;14.63842034;42.84412153
36.475;2.202148438;0;0.277977221;-3.337291226;11.13751273;39.77581841
41.495;2.202148438;0;0.259417398;-5.484389398;30.07852707;37.24118999
140.95;2.202148438;0;0.270708693;-4.647891508;21.60289547;39.26618567
5.955;2.197265625;0;0.278377843;-0.012817802;0.000164296;43.36939715
27.075;2.197265625;0;0.255263376;-3.449849668;11.90146273;40.76127598
53.1;2.197265625;0;0.268660211;-3.385842436;11.463929;36.68416633
71.325;2.197265625;0;0.257616289;-1.80945777;3.274137423;33.8954756
92.945;2.197265625;0;0.258803291;-6.759371219;45.68909928;37.57505961
118.18;2.197265625;1;0.274241404;-7.386497578;54.56034648;41.98740597
142.83;2.197265625;0;0.266782355;-5.318934174;28.29106075;40.63750075
46.385;2.192382813;0;0.259844491;-6.955004076;48.37208169;36.42404965
78.065;2.192382813;0;0.18533834;3.248587665;10.55332182;24.15008717
86.105;2.192382813;0;0.280761424;-9.113680073;83.05916447;48.01286838
110.805;2.192382813;0;0.268757878;-4.826215109;23.29235228;36.67122083
126.295;2.192382813;0;0.282607583;-4.341954099;18.8525654;42.29535164
153.42;2.192382813;0;0.255962489;-3.774465145;14.24658713;33.89363233
11.03;2.1875;0;0.268835066;-3.461800935;11.98406571;38.22133187
100.65;2.1875;0;0.276543269;-5.546100717;30.75923316;39.38337523
105.79;2.1875;0;0.27594735;-2.399977807;5.759893472;40.21646057
123.77;2.1875;0;0.277551721;-2.337231101;5.462649218;40.48406406
128.11;2.1875;0;0.247034074;-1.223502928;1.496959414;28.06969711
131.125;2.1875;0;0.262289484;-9.890724264;97.82642646;44.48297014
13.085;2.182617188;0;0.263867566;-6.794449078;46.16453827;38.42720147
36.48;2.182617188;0;0.261290765;-9.215900785;84.93282729;42.49923094
43.395;2.182617188;0;0.271428483;-2.771064746;7.678799828;36.81485411
106.8;2.182617188;0;0.256222711;-2.268411169;5.14568923;34.11095817
113.61;2.182617188;0;0.279795624;-2.093629266;4.383283504;39.14631373
127.155;2.182617188;0;0.278806712;-4.690276321;21.99869196;39.79918434
52.135;2.177734375;0;0.262020933;-2.560686047;6.557113029;35.98728456
90.055;2.177734375;0;0.249906322;-0.202650903;0.041067388;34.27640294
96.175;2.177734375;0;0.272216211;-2.019682385;4.079116936;38.04950985
121.05;2.177734375;0;0.264132315;-7.362216236;54.20222791;40.25653726
129.065;2.177734375;0;0.277724006;-2.943752114;8.665676508;39.78343353
40.535;2.172851563;0;0.251559518;-3.491714814;12.19207234;32.89112662
62.885;2.172851563;0;0.250054302;-1.410219247;1.988718324;33.80678609
64.81;2.172851563;0;0.274514352;-2.697993623;7.279169588;39.76862313
82.165;2.172851563;0;0.25659695;-11.83542978;140.0773981;49.17956265
86.1;2.172851563;0;0.295054446;-2.8586044;8.171619114;45.44872425
91.915;2.172851563;0;0.283637751;-1.140034855;1.299679472;43.51736562
104.795;2.172851563;1;0.263163365;-4.883510588;23.84867566;38.09836496
134.125;2.172851563;1;0.282788368;1.050409666;1.103360467;47.41670219
146.69;2.172851563;0;0.263930931;-2.126558751;4.52225212;36.79985972
26.175;2.16796875;0;0.25316639;-0.65531997;0.429444262;34.98244753
87.105;2.16796875;0;0.265153199;-6.131411039;37.59420132;39.59783946
92.94;2.16796875;1;0.263248191;-0.888979961;0.79028537;36.20882545
120.065;2.16796875;0;0.25196496;-4.094241189;16.76281092;41.07076928
120.07;2.16796875;0;0.231493754;-9.604870226;92.25353206;44.14588701
139.06;2.16796875;0;0.264138997;-2.680378314;7.184427907;35.08794161
77.135;2.163085938;0;0.296305149;-6.258115724;39.16401242;52.49986418
90.98;2.163085938;0;0.277112032;-9.02303619;81.41518209;47.79658466
109.805;2.163085938;0;0.271488199;-2.217963449;4.919361861;38.0240868
136.195;2.163085938;0;0.267116793;-5.022616616;25.22667767;38.50833102
141.88;2.163085938;0;0.258426067;-1.647428677;2.714021245;35.03768614
162.21;2.163085938;0;0.271362174;-1.278770928;1.635255086;37.82751253
50.275;2.158203125;0;0.280912476;-1.978596201;3.914842926;39.15061193
81.33;2.158203125;0;0.290733293;-1.243689526;1.546763636;45.9965248
113.615;2.158203125;1;0.269327478;-8.114059101;65.8379551;41.10896932
132.245;2.158203125;0;0.267546802;-2.233676585;4.989311086;35.2458336
139.99;2.158203125;0;0.289914509;0.710629132;0.504993764;46.18463955
151.5;2.158203125;0;0.271202603;-9.028894434;81.5209347;47.26488869
12.045;2.153320313;0;0.251289422;-2.312341945;5.34692527;33.23253942
43.4;2.153320313;0;0.257573159;-8.588161795;73.75652302;39.05587862
76.49;2.153320313;0;0.146806352;-7.352695163;54.06212617;27.16535034
94.04;2.153320313;0;0.257149874;-1.879930376;3.534138219;32.90076549
96.18;2.153320313;0;0.262117799;-7.895799887;62.34365585;39.95340381
98.445;2.153320313;1;0.269409918;-1.11648859;1.246546771;38.75635146
154.395;2.153320313;1;0.275571115;-5.17209241;26.75053989;40.02490637
24.255;2.1484375;0;0.264345701;-3.296223052;10.86508641;35.9541828
44.395;2.1484375;1;0.259675606;-5.459767822;29.80906467;35.52954002
56.99;2.1484375;0;0.24935822;-8.29391197;68.78897577;38.81475915
66.75;2.1484375;0;0.255831781;-8.48906955;72.06430182;39.13136514
103.815;2.1484375;0;0.243465212;-3.284839048;10.79016757;29.34733512
112.74;2.1484375;1;0.263043307;-8.761238157;76.75929405;41.78692819
125.48;2.1484375;0;0.251709336;-5.139073632;26.4100778;34.65020881
164.15;2.1484375;0;0.25660645;-5.61114172;31.48491141;33.93790544
13.08;2.143554688;0;0.268457897;-0.918066244;0.842845629;37.18806223
17.04;2.143554688;0;0.285323501;-0.151852795;0.023059271;42.51263966
46.38;2.143554688;0;0.265948891;-1.220880063;1.490548129;35.03446156
56.985;2.143554688;0;0.262834925;-2.695341034;7.264863291;36.6717353
82.155;2.143554688;0;0.286091662;0.256886842;0.065990849;43.73050226
98.45;2.143554688;1;0.263827475;-7.142164064;51.01050751;40.23603884
130.12;2.143554688;0;0.261634601;-4.161355194;17.31687705;27.33274523
143.79;2.143554688;0;0.252608717;-2.270119399;5.153442084;34.25264121
162.215;2.143554688;0;0.264968319;-7.013644161;49.19120442;39.21932222
5.04;2.138671875;0;0.263674949;0.843529545;0.711542094;13.74652494
23.24;2.138671875;0;0.269153509;-3.442915433;11.85366668;36.85393763
26.18;2.138671875;0;0.24988979;-6.172373413;38.09819355;35.87856977
28.945;2.138671875;1;0.264261901;-9.606277871;92.28057453;44.68823058
31.17;2.138671875;0;0.253872423;-1.129519895;1.275815194;33.25287588
74.25;2.138671875;0;0.24459962;-2.981024547;8.886507353;30.02093132
118.175;2.138671875;0;0.280616282;-1.274975572;1.62556271;40.32782648
134.135;2.138671875;1;0.260611734;-11.30565659;127.8178709;52.0967019
156.34;2.138671875;0;0.276871574;-0.265669057;0.070580048;41.47392937
0.685;2.133789063;0;0.297803345;0.985181486;0.97058256;50.4924832
1.555;2.133789063;0;0.283605448;-5.748443758;33.04460563;45.86865383
3.445;2.133789063;0;0.384514317;-15.63019614;244.3030313;140.3244153
33.385;2.133789063;0;0.247513151;-3.327206416;11.07030254;31.70977761
59;2.133789063;1;0.237544953;1.700722208;2.89245603;30.77027851
69.565;2.133789063;1;0.244117384;-1.756666074;3.085875694;30.37785592
105.795;2.133789063;0;0.263947461;-8.312774202;69.10221494;42.29552378
117.22;2.133789063;0;0.26422666;-3.417128952;11.67677027;36.05832717
121.045;2.133789063;0;0.271397103;-1.452957786;2.111086328;38.69439489
149.61;2.133789063;0;0.265520552;-9.514605728;90.52772217;45.14164811
16.07;2.12890625;0;0.257243537;-3.153067143;9.941832411;35.63455508
34.39;2.12890625;0;0.274878002;-3.669412495;13.46458806;38.83762858
52.14;2.12890625;0;0.249217502;-8.157787272;66.54949317;37.98491645
75.515;2.12890625;0;0.090181712;2.532459022;6.413348699;35.80027308
75.825;2.12890625;0;0.247087653;3.071437878;9.433730638;165.530411
77.13;2.12890625;0;0.293699101;0.521209563;0.271659408;52.85990376
108.835;2.12890625;0;0.266152031;-0.234852598;0.055155743;36.38495111
115.375;2.12890625;0;0.261918535;-11.67214584;136.2389885;48.3796158
121.965;2.12890625;0;0.269609793;-5.516588305;30.43274652;37.51661122
15.085;2.124023438;0;0.223569925;-8.915045952;79.47804433;32.57497725
56.015;2.124023438;0;0.248114016;-3.780721884;14.29385796;31.73699784
65.765;2.124023438;0;0.251233374;-1.225315979;1.501399249;33.42202278
77.29;2.124023438;0;0.113500164;-5.771060626;33.30514075;81.7287167
78.94;2.124023438;0;0.247182059;-2.614459431;6.835398118;29.37772685
80.555;2.124023438;0;0.235083543;-5.933852086;35.21060058;30.97135836
97.325;2.124023438;0;0.251632968;-9.08539094;82.54432854;40.43848909
146.695;2.124023438;0;0.253298138;-7.82608175;61.24755556;38.51226214
25.245;2.119140625;0;0.233866674;-5.1046301;26.05724846;29.35136236
27.07;2.119140625;0;0.24409051;2.234573358;4.993318093;41.47145461
34.385;2.119140625;0;0.264299424;2.115715581;4.476252419;38.69316927
49.325;2.119140625;0;0.251349842;-1.347454346;1.815633216;33.03779746
73.215;2.119140625;0;0.247926621;1.335170164;1.782679366;38.27604329
84.17;2.119140625;0;0.267553253;0.289457318;0.083785539;37.39118826
160.285;2.119140625;0;0.255290056;0.394826101;0.15588765;33.86601263
6.92;2.114257813;0;0.244468098;-1.636206662;2.677172241;32.24624941
27.98;2.114257813;0;0.250540686;-1.945304057;3.784207874;32.00256137
39.57;2.114257813;0;0.270664402;0.004455683;1.99E-05;39.66380324
55.025;2.114257813;0;0.366184531;-10.87922433;118.3575221;60.31606434
138.105;2.114257813;0;0.266597936;0.046708598;0.002181693;37.71050738
37.54;2.109375;0;0.249161291;-4.781108715;22.85900054;32.30769075
47.375;2.109375;0;0.242784562;-0.882017624;0.777955088;30.27744815
53.105;2.109375;0;0.251730999;-9.081986873;82.48248557;39.3135606
61.945;2.109375;0;0.262180194;-11.41529983;130.3090701;51.09061821
63.84;2.109375;0;0.274750634;-10.68913407;114.2575872;51.15301126
85.12;2.109375;0;0.26795776;0.281963715;0.079503537;29.18853694
87.1;2.109375;0;0.266732645;-0.315889243;0.099786014;38.61259331
3.32;2.104492188;0;0.292155742;-7.483939572;56.00935152;45.01182397
11.035;2.104492188;0;0.251526061;-9.125443569;83.27372033;40.9047833
25.24;2.104492188;0;0.233675831;0.038168564;0.001456839;28.75264161
35.42;2.104492188;0;0.255550837;-11.45510122;131.219344;47.8965041
76.2;2.104492188;0;0.449951116;-0.60382114;0.364599969;129.7751967
119.13;2.104492188;0;0.252279299;-4.36542205;19.05690967;32.61278478
158.33;2.104492188;0;0.255383188;-6.059298747;36.71510131;35.90258966
8.925;2.099609375;0;0.246170736;-4.925736331;24.26287841;32.93474723
19.025;2.099609375;0;0.269217555;-9.646609743;93.05707953;45.85708687
22.22;2.099609375;0;0.256918578;-9.499842612;90.24700965;41.30524404
51.225;2.099609375;0;0.247837303;-2.607579485;6.79947077;32.24252745
78.07;2.099609375;0;0.201581279;-0.884831533;0.782926841;23.97098403
144.755;2.099609375;1;0.25954469;-8.518494251;72.5647443;40.89246891
54.06;2.094726563;0;0.246380173;-2.204559839;4.860084084;32.24459641
63.83;2.094726563;0;0.28890573;1.846683552;3.41024014;47.12690036
100.645;2.094726563;0;0.273322335;0.644186823;0.414976663;38.58247141
121.96;2.094726563;0;0.267136485;0.494661595;0.244690094;36.6705526
137.14;2.094726563;0;0.253709197;1.182947905;1.399365746;36.28263446
140;2.094726563;0;-0.005257107;-25.15710988;632.8801775;21.09600592
17.05;2.08984375;0;0.252011928;-12.11713734;146.8250174;48.43958696
42.445;2.08984375;0;0.250114235;-3.683647226;13.56925688;33.71011689
62.89;2.08984375;0;0.243003206;-6.791892264;46.12980052;35.10625542
65.77;2.08984375;0;0.245106794;-6.619639014;43.81962067;34.58134691
152.46;2.08984375;0;0.264059988;1.0403258;1.08227777;39.18801278
158.325;2.08984375;0;0.257551907;-0.43374377;0.188133658;34.88608453
14.1;2.084960938;0;0.246889654;-2.456257826;6.033202506;30.9797374
18.05;2.084960938;0;0.2533563;-3.560315105;12.67584365;33.7022996
31.175;2.084960938;0;0.248224824;-6.602964853;43.59914485;34.58498655
35.41;2.084960938;0;0.282098831;0.499179435;0.249180108;42.76017061
60.975;2.084960938;0;0.254796308;-3.389831857;11.49096002;32.75272369
61.935;2.084960938;0;0.285124336;0.968045311;0.937111724;46.36263017
66.745;2.084960938;0;0.269106495;-2.654942731;7.048720906;37.12144864
70.425;2.084960938;0;0.257859484;-0.651055549;0.423873327;35.4144824
73.22;2.084960938;0;0.254602472;-4.434580844;19.66550726;38.69500298
75.925;2.084960938;0;0.126626133;-11.08158119;122.8014416;139.7473481
77.845;2.084960938;0;0.00677659;-2.904268766;8.434777066;8.303272159
124.645;2.084960938;1;0.22398016;-1.409460697;1.986579458;27.61464653
157.325;2.084960938;0;0.266108757;0.164031787;0.026906427;38.16588854
2.45;2.080078125;0;0.23409989;-0.123701863;0.015302151;29.44294535
3.435;2.080078125;0;0.421222431;0.51960696;0.269991393;146.3199972
4.175;2.080078125;0;0.241522348;5.305160679;28.14472983;39.27650021
71.33;2.080078125;0;0.248569;-7.26981855;52.85026175;35.53809202
85.125;2.080078125;0;0.269367579;-5.188106705;26.91645118;30.08575197
90.06;2.080078125;0;0.248893067;-6.097698745;37.18192998;35.51580061
95.06;2.080078125;0;0.282808425;0.311768074;0.097199332;52.20686803
106.805;2.080078125;0;0.244880655;-7.843772877;61.52477295;35.92839817
116.295;2.080078125;0;0.251889103;-10.52247176;110.722412;43.02664317
142.825;2.080078125;0;0.262943454;0.7677802;0.589486436;40.04914607
7.91;2.075195313;0;0.256193205;-9.626941878;92.67800991;43.27478403
8.92;2.075195313;0;0.243532362;0.527674912;0.278440813;32.41509096
48.355;2.075195313;0;0.261531057;0.196263559;0.038519385;34.79008565
122.855;2.075195313;1;0.286456508;2.700623612;7.293367894;48.79367996
122.865;2.075195313;0;0.280423907;-10.06994656;101.4038237;52.05885773
123.775;2.075195313;0;0.265865566;-8.20072604;67.25190758;42.55046336
125.475;2.075195313;0;0.24915834;0.51019928;0.260303306;34.14183424
133.2;2.075195313;1;0.249077943;-0.207801042;0.043181273;33.6093803
145.75;2.075195313;0;0.268121471;-2.41301161;5.822625031;36.79268954
156.35;2.075195313;0;0.242817052;-12.02403118;144.5773258;47.36967021
64.815;2.0703125;0;0.261024384;-8.535953056;72.86249457;41.98954558
76.41;2.0703125;0;0.03706293;-4.867622353;23.69374737;23.34475187
107.805;2.0703125;1;0.246951213;-9.340795481;87.25046021;39.65181979
110.81;2.0703125;0;0.244626802;-10.35377796;107.2007181;40.17045176
128.115;2.0703125;0;0.24091656;-6.512818378;42.41680322;29.25847532
132.25;2.0703125;0;0.256378419;-7.978205395;63.65176133;37.20832197
161.26;2.0703125;0;0.251339969;-10.57219339;111.7712732;43.65625439
163.155;2.0703125;0;0.280841881;1.215045656;1.476335945;43.82572238
163.165;2.0703125;0;0.260861357;-11.03651347;121.8046296;48.34900943
24.26;2.065429688;0;0.247864586;-8.850104999;78.32435849;38.34350096
32.265;2.065429688;0;0.258189231;-0.195732223;0.038311103;35.62227924
38.555;2.065429688;0;0.266283993;0.331360496;0.109799778;38.89026606
114.485;2.065429688;0;0.254417853;-2.21065484;4.886994823;33.0480179
136.19;2.065429688;0;0.262677763;0.887805909;0.788199333;38.01460568
159.325;2.065429688;0;0.246935166;-10.97107485;120.3644833;43.55698128
9.935;2.060546875;0;0.273036666;1.107197332;1.225885931;40.94620735
45.355;2.060546875;0;0.261894037;1.66044193;2.757067402;41.10381847
76.405;2.060546875;0;0.050126942;-2.612802534;6.82673708;30.7217018
101.705;2.060546875;0;0.268029813;1.901884782;3.617165725;39.28399232
102.765;2.060546875;0;0.268011214;0.509231682;0.259316906;38.70280872
111.8;2.060546875;0;0.26938737;-0.09794785;0.009593781;37.49272373
147.655;2.060546875;1;0.252048404;0.899209023;0.808576868;33.80109552
0.695;2.055664063;0;0.274133641;-11.70902303;137.1012204;55.63767393
59.01;2.055664063;0;0.227804864;-8.644047409;74.71955561;33.42426592
70.43;2.055664063;0;0.254604206;-6.242812141;38.97270343;36.42462435
78.935;2.055664063;0;0.233573122;2.721787516;7.408127282;29.47623758
141.885;2.055664063;0;0.250188924;-7.126598926;50.78841226;36.51688216
160.29;2.055664063;0;0.257264187;-5.127110265;26.28725967;34.56505297
9.945;2.05078125;0;0.253073597;-10.74150711;115.3799751;45.18667532
76.575;2.05078125;0;-0.001986393;-7.893954673;62.31452038;43.54136627
101.715;2.05078125;0;0.256327532;-9.969862468;99.39815763;42.85113803
140.945;2.05078125;0;0.263587276;1.424283403;2.028583213;38.93647139
148.63;2.05078125;0;0.24847798;-0.246028249;0.060529899;32.42724819
150.55;2.05078125;0;0.255327928;2.139224418;4.576281109;38.06671728
21.13;2.045898438;0;0.251756953;2.234873323;4.99465877;35.8100076
30.06;2.045898438;0;0.267187751;-1.425220223;2.031252683;38.38621623
75.52;2.045898438;0;0.102844008;-0.362843873;0.131655676;34.87455375
76.22;2.045898438;0;0.173643672;-27.85513009;775.9082724;189.6673119
126.3;2.045898438;0;0.260897812;-10.14064558;102.8326927;45.49793489
164.145;2.045898438;1;0.255623625;0.196564998;0.038637798;33.19758118
2.455;2.041015625;0;0.233481381;-5.300098847;28.09104779;30.01104589
7.9;2.041015625;0;0.265205522;2.147302573;4.610908341;40.02287254
20.085;2.041015625;0;0.219139418;-8.848333715;78.29300953;32.5494152
58.025;2.041015625;1;0.248806578;0.511383905;0.261513499;33.16468595
74.255;2.041015625;0;0.229694498;-8.184766369;66.99040052;32.19292588
76.67;2.041015625;0;-0.104044127;-8.731819958;76.24467978;63.20954236
90.97;2.041015625;0;0.273399031;3.586162922;12.86056451;45.61193787
103.82;2.041015625;1;0.227041017;-8.542542414;72.9750309;31.61311807
150.56;2.041015625;0;0.247165073;-9.288862071;86.28295858;40.90021242
5.05;2.036132813;0;0.244529972;-10.08902197;101.7883643;17.8672201
37.535;2.036132813;0;0.24609981;0.612296104;0.374906518;31.94686806
79.765;2.036132813;1;0.257095407;-3.909358155;15.28308118;32.55194773
104.79;2.036132813;1;0.257435928;1.145487304;1.312141163;37.73969857
115.365;2.036132813;0;0.286093754;0.871863363;0.760145724;43.08934428
4.19;2.03125;0;0.233475895;-11.51680013;132.6366852;44.05981324
32.275;2.03125;0;0.227273135;-11.08440241;122.8639768;40.57551287
41.49;2.03125;0;0.257795628;0.324354083;0.105205571;36.57807259
77.355;2.03125;0;0.028221658;0.32291695;0.104275356;26.95501354
89.09;2.03125;0;0.248946259;-3.079322615;9.482227768;38.83808865
117.215;2.03125;0;0.252654885;2.31435495;5.356238834;35.94541923
159.315;2.03125;0;0.271178059;0.620098031;0.384521569;38.98914034
12.05;2.026367188;0;0.239727712;-7.644063879;58.43171259;35.04247605
20.075;2.026367188;0;0.223682265;2.436763686;5.937817263;29.56660643
59.985;2.026367188;0;0.263103716;-3.112287321;9.686332369;35.01964111
69.57;2.026367188;0;0.235334054;-6.954320066;48.36256758;31.7687979
75.415;2.026367188;0;0.031057824;6.013645214;36.16392876;53.05453049
119.125;2.026367188;1;0.246981864;1.059486907;1.122512505;32.25784849
151.49;2.026367188;0;0.269169706;3.377185261;11.40538029;44.91325971
1.55;2.021484375;0;0.280307439;0.659601822;0.435074563;45.2445805
21.14;2.021484375;0;0.245224966;-8.978850669;80.61975933;38.45268166
22.21;2.021484375;0;0.264007724;2.331450451;5.435661204;38.29257596
40.53;2.021484375;0;0.241121811;2.087541393;4.357829066;32.85384229
76.57;2.021484375;0;0.030613663;-6.520011235;42.51054651;42.90803562
139.055;2.021484375;0;0.24943116;2.941567545;8.65281962;35.30277818
47.38;2.016601563;0;0.238374474;-6.149615625;37.81777234;31.40170431
107.795;2.016601563;0;0.254893536;2.175210369;4.73154015;36.64561807
116.285;2.016601563;0;0.268646061;1.43570374;2.06124523;38.92514781
45.365;2.01171875;0;0.248933118;-9.660902337;93.33303397;44.5323208
55.015;2.01171875;0;0.33695815;7.801816029;60.86833336;56.24321201
58.035;2.01171875;0;0.225437374;-10.31686311;106.4376645;37.20286115
72.22;2.01171875;0;0.285448164;2.842554003;8.080113259;48.34422277
76.93;2.01171875;0;0.046795205;-6.917105731;47.84635169;18.96569521
78.06;2.01171875;0;0.151908576;6.685952983;44.70196729;24.45939797
78.09;2.01171875;0;0.069817084;-12.6844587;160.8954926;35.18489976
81.34;2.01171875;0;0.245874921;-13.23549455;175.1783159;53.42332191
90.05;2.01171875;0;0.221988083;5.583647717;31.17712183;34.27503403
97.315;2.01171875;0;0.254586858;2.734506084;7.477523526;37.95593122
111.81;2.01171875;0;0.238268697;-11.47737394;131.7301125;42.93049123
148.635;2.01171875;0;0.247247839;-5.721216795;32.73232162;33.26258636
2.91;2.006835938;0;0.061388364;1.492109204;2.226389875;4.095008328
42.44;2.006835938;0;0.242506556;1.521535765;2.315071084;33.61080569
59.99;2.006835938;0;0.24754228;-8.757888489;76.70061078;37.38756996
76.485;2.006835938;0;0.165922074;-3.823144369;14.61643287;25.41867016
109.81;2.006835938;0;0.260398381;-7.878630232;62.07281434;39.98780246
110.8;2.006835938;0;0.26290723;1.170129499;1.369203046;36.18461894
147.665;2.006835938;0;0.232450816;-10.04414109;100.8847703;37.5075465
153.425;2.006835938;1;0.237090163;-9.033515926;81.60440999;36.424934
157.335;2.006835938;0;0.23795403;-11.08488598;122.8746973;43.00526505
23.235;2.001953125;0;0.257142772;2.402147442;5.770312331;36.74697367
41.5;2.001953125;0;0.231995451;-10.66264208;113.6919361;40.92851735
44.39;2.001953125;0;0.258662552;0.202610876;0.041051167;34.81468476
75.42;2.001953125;0;0.06112605;6.33604252;40.14543482;54.3920154
94.035;2.001953125;0;0.239411691;3.547636576;12.58572528;33.07564156
108.845;2.001953125;0;0.234135985;-11.39628061;129.8752118;41.63517535
127.16;2.001953125;0;0.25535533;-10.48817621;110.0018403;43.35751287
128.105;2.001953125;0;0.227041745;3.99846585;15.98772915;28.46147229
130.115;2.001953125;0;0.255336292;1.259661671;1.586747526;26.755516
143.795;2.001953125;1;0.24125812;-7.698534916;59.26743985;36.01609679
153.415;2.001953125;0;0.24675427;1.841643825;3.391651979;33.88279779
2.92;1.997070313;0;0.073496561;0.477831591;0.22832303;3.96435001
68.63;1.997070313;0;0.280691352;2.972318988;8.834680166;47.06796297
76.205;1.997070313;0;0.44693201;-10.46914073;109.6029076;133.1762149
83.135;1.997070313;0;0.228047333;-13.5830651;184.4996575;50.86935351
127.15;1.997070313;0;0.270955785;1.570185247;2.465481711;39.47391888
161.25;1.997070313;0;0.26927278;1.303115938;1.698111148;39.63347853
2.905;1.9921875;0;0.050652558;2.147161253;4.610301448;4.163897058
2.95;1.9921875;0;0.052494144;-3.273524413;10.71596208;4.478972029
48.365;1.9921875;0;0.233871627;-11.04176247;121.9205185;39.66281952
51.23;1.9921875;0;0.234799406;-7.718617539;59.57705672;33.98265255
56.01;1.9921875;0;0.239909709;1.640861275;2.692425723;31.6489033
75.685;1.9921875;0;0.050592601;-15.08414619;227.5314664;40.90731165
76.21;1.9921875;0;0.394586307;-19.055745;363.1214177;144.6274485
78.085;1.9921875;0;0.127294634;-11.49551003;132.1467508;31.06793223
88.1;1.9921875;0;0.246949175;-12.94914207;167.6802803;52.89824449
114.48;1.9921875;0;0.238772263;3.129117971;9.791379274;33.2164411
140.955;1.9921875;0;0.247469236;-10.21739193;104.3950979;42.63200569
152.47;1.9921875;0;0.244349496;-10.41322054;108.4351621;43.30021791
154.39;1.9921875;0;0.271215992;0.871024511;0.7586837;39.41841264
2.915;1.987304688;0;0.06884891;0.929530254;0.864026492;4.016945529
16.065;1.987304688;0;0.244996849;2.449337531;5.999254342;35.739748
54.055;1.987304688;0;0.230989297;3.078175085;9.475161852;32.57184264
60.97;1.987304688;0;0.244895147;1.980232368;3.921320232;32.72291727
71.32;1.987304688;0;0.238905682;3.742121243;14.0034714;34.10891425
77.35;1.987304688;0;0.016874939;2.269343764;5.149921118;28.22579521
141.875;1.987304688;0;0.238932798;3.898653885;15.19950212;35.45332563
2.925;1.982421875;0;0.075885719;0.099216217;0.009843858;3.943543059
11.025;1.982421875;0;0.256220157;2.522981765;6.365436988;38.18227935
15.075;1.982421875;0;0.226530895;2.654602289;7.046913313;29.57431956
72.235;1.982421875;0;0.228178812;-15.35299791;235.714545;59.63793802
76.65;1.982421875;0;0.150534618;-11.44343699;130.9522502;49.76114558
77.125;1.982421875;0;0.258750403;6.989739651;48.85646039;55.43594502
84.18;1.982421875;1;0.240711967;-10.96351764;120.1987191;42.27521072
102.775;1.982421875;0;0.242395578;-11.13896926;124.0766362;43.44997294
149.6;1.982421875;0;0.269674086;2.724566443;7.423262302;42.42833311
2.955;1.977539063;0;0.036126522;-4.265644504;18.19572303;5.063100508
14.095;1.977539063;0;0.233134958;2.750939296;7.567667008;31.17230483
28.935;1.977539063;0;0.271092184;2.407726254;5.797145716;41.99412891
38.565;1.977539063;0;0.239268691;-11.12907532;123.8563176;43.77046023
40.54;1.977539063;0;0.234100944;-8.735695347;76.31237319;35.30980711
75.48;1.977539063;0;-0.150120393;2.263045921;5.12137684;35.20832182
91.925;1.977539063;0;0.241091608;-12.66545315;160.4137035;50.27001039
99.555;1.977539063;0;0.262574036;4.127331477;17.03486512;43.02128663
109.8;1.977539063;0;0.25354138;3.589363808;12.88353254;38.25772686
135.135;1.977539063;0;0.263090504;3.029750742;9.179389556;34.94929371
144.745;1.977539063;0;0.255403545;3.449834187;11.90135592;38.84801837
155.375;1.977539063;0;0.246512089;1.538749442;2.367749845;32.93881248
155.38;1.977539063;0;0.254205837;-3.769991795;14.21283814;33.12858987
5.965;1.97265625;0;0.247256522;-11.62437689;135.126138;48.53786731
39.58;1.97265625;0;0.241035806;-11.15499579;124.4339311;44.53726318
49.32;1.97265625;0;0.231979101;3.874148235;15.00902455;33.38925477
75.51;1.97265625;0;0.063090904;5.418161755;29.3564768;36.47409896
77.285;1.97265625;0;0.127069382;-2.713843601;7.364947092;85.70267861
94.045;1.97265625;0;0.247750222;-7.227573921;52.23782478;34.56131048
126.29;1.97265625;0;0.273092148;1.903086926;3.621739848;42.1955888
130.125;1.97265625;0;0.240827825;-9.241720839;85.40940406;30.17972537
135.15;1.97265625;0;0.215608926;-14.22738178;202.4183923;44.83263071
12.04;1.967773438;0;0.235400752;3.177733995;10.09799334;33.51035436
27.975;1.967773438;0;0.234740871;3.159963004;9.985366186;32.27692958
50.285;1.967773438;0;0.2307032;-13.18188359;173.762055;46.8996739
53.095;1.967773438;1;0.255749844;2.582073547;6.667103804;36.68745908
62.88;1.967773438;1;0.230006806;4.00949925;16.07608424;34.2905222
76.195;1.967773438;0;0.404248305;9.140562139;83.54987623;129.7780043
104.8;1.967773438;0;0.238745812;-10.37094425;107.5564846;41.55397439
124.65;1.967773438;1;0.216932856;-6.236192399;38.89009564;28.3804915
19.015;1.962890625;0;0.276325603;2.404409283;5.781184;42.70463947
33.38;1.962890625;0;0.237268147;2.049000995;4.198405076;31.71557041
77.395;1.962890625;0;-0.059048284;0.702326685;0.493262772;23.00276176
78.385;1.962890625;0;0.04197405;-0.936092807;0.876269743;1.423108834
80.55;1.962890625;0;0.238150858;-0.613463029;0.376336888;30.15717182
83.12;1.962890625;1;0.263525947;3.885933656;15.10048038;42.80438626
112.73;1.962890625;0;0.26093493;3.266294313;10.66867854;39.67305318
146.685;1.962890625;0;0.245493914;3.687403406;13.59694388;37.2704682
6.915;1.958007813;0;0.226403055;3.613008561;13.05383086;32.69662553
26.17;1.958007813;0;0.229252245;4.782828912;22.8754524;35.71978715
75.22;1.958007813;0;0.103621319;9.169557453;84.08078388;90.48679189
75.33;1.958007813;0;0.08655759;-12.56870003;157.9722204;85.00263315
76.325;1.958007813;0;0.021792725;0.040440784;0.001635457;203.3244202
77.295;1.958007813;0;0.084644861;-7.824838015;61.22808995;74.32065291
100.655;1.958007813;0;0.248812765;-11.1442588;124.1945041;43.49477658
164.155;1.958007813;0;0.228550742;-10.81334954;116.9285283;37.75175882
52.13;1.953125;0;0.245963058;3.211574949;10.31421365;36.31053697
58.995;1.953125;0;0.204442168;6.620557007;43.83177509;31.10048313
77.84;1.953125;1;0.01597652;-1.839985966;3.385548354;9.028313505
106.795;1.953125;0;0.239073514;3.429839364;11.76379806;34.46933783
131.115;1.953125;0;0.268674861;2.564847184;6.578441079;41.05546866
137.15;1.953125;0;0.236916848;-9.761640761;95.28963035;39.63218369
154.4;1.953125;0;0.249710653;-10.63580395;113.1203256;43.72794487
162.205;1.953125;0;0.249164449;4.439544996;19.70955977;38.36649679
43.39;1.948242188;0;0.255349052;3.215886199;10.34192404;37.08894154
77.39;1.948242188;0;-0.055168262;-0.776004423;0.602182864;22.9958471
85.115;1.948242188;0;0.240532001;5.485151857;30.08689089;29.18588682
86.11;1.948242188;0;0.235193024;-14.20325683;201.7325045;54.7189411
99.57;1.948242188;0;0.230856003;-13.41549244;179.9754374;50.80038399
105.785;1.948242188;0;0.257564888;3.676492451;13.51659674;40.53766456
120.06;1.948242188;0;0.242871694;1.818653151;3.307499285;40.51200891
121.28;1.948242188;0;0.060022009;-3.430909892;11.77114269;6.642232277
123.765;1.948242188;1;0.25900938;3.708468142;13.75273596;40.68958917
138.115;1.948242188;0;0.237280367;-11.18737836;125.1574346;42.61643537
139.065;1.948242188;0;0.250737106;-8.115491598;65.86120388;37.11474231
13.09;1.943359375;0;0.22989532;-11.85813955;140.6154737;43.05778124
33.39;1.943359375;0;0.230877119;-8.407789309;70.69092107;33.97744858
77.72;1.943359375;0;0.081385469;-5.211631174;27.1610995;16.73624807
78.365;1.943359375;0;0.015520993;2.373239756;5.632266939;1.279032763
86.095;1.943359375;0;0.276977583;3.615372729;13.07091997;45.68470084
145.755;1.943359375;0;0.256056413;-8.003498727;64.05599187;38.58565
2.93;1.938476563;0;0.0763818;-0.286321314;0.081979895;3.944653422
68.645;1.938476563;0;0.228100976;-14.79842253;218.9933095;57.249583
74.245;1.938476563;1;0.232372317;2.445460701;5.980278041;29.96487139
75.1;1.938476563;0;0.094648117;-15.00271054;225.0813235;53.1637505
92.95;1.938476563;0;0.225006435;-11.793975;139.0978463;42.19776359
143.785;1.938476563;1;0.236036716;3.314400141;10.9852483;34.54271846
2.9;1.93359375;0;0.036538196;2.822872274;7.968607874;4.163061281
2.945;1.93359375;0;0.06392088;-2.28534733;5.22281242;4.155345898
2.96;1.93359375;0;0.014798299;-5.07458675;25.75143069;5.915358122
3.315;1.93359375;0;0.296909012;-0.95065407;0.90374316;43.1493207
4.195;1.93359375;0;0.175891895;-15.05866232;226.763311;51.61758318
6.925;1.93359375;0;0.236287065;-6.804168372;46.29670724;33.57413139
16.075;1.93359375;0;0.241478201;-8.444904566;71.31641312;37.85464601
17.035;1.93359375;0;0.255346997;5.995300905;35.94363294;43.14151035
24.25;1.93359375;0;0.251674403;2.534259554;6.422471485;36.14220343
27.065;1.93359375;0;0.206651618;7.487778242;56.066823;43.58334962
36.47;1.93359375;0;0.26385279;2.824886187;7.979981967;39.75472968
49.33;1.93359375;0;0.24461257;-6.515631532;42.45345426;34.29476675
78.945;1.93359375;1;0.234109762;-7.829805983;61.30586173;31.36114018
113.605;1.93359375;0;0.259781713;4.002782247;16.02226572;39.54534078
118.185;1.93359375;0;0.237308916;-12.6223026;159.3225229;47.29357388
136.2;1.93359375;0;0.24200371;-10.36870599;107.510064;42.009584
142.835;1.93359375;1;0.240187684;-10.76314296;115.8452464;44.40595933
4.2;1.928710938;0;0.100598583;-16.52949059;273.2240592;60.60896535
18.045;1.928710938;0;0.243532459;1.964768235;3.860314217;33.66451414
25.235;1.928710938;0;0.208881604;4.958845544;24.59014913;29.31185923
31.165;1.928710938;0;0.232284664;4.317551891;18.64125433;33.58887093
64.805;1.928710938;0;0.257758011;3.351268237;11.2309988;40.05404768
92.935;1.928710938;0;0.238660355;4.917567046;24.18246566;36.56761243
96.17;1.928710938;0;0.252485948;3.946052584;15.571331;38.35902019
121.055;1.928710938;0;0.227321233;-12.36707703;152.9445942;45.30985106
27.985;1.923828125;0;0.240814166;-6.930794722;48.03591548;33.49248229
46.39;1.923828125;0;0.22506947;-11.89039061;141.3813888;41.11414253
54.065;1.923828125;0;0.235357373;-7.333964765;53.78703918;33.86707863
56.02;1.923828125;0;0.229210406;-8.861011262;78.51752058;34.23258476
56.98;1.923828125;0;0.247231652;3.120654591;9.738485074;36.86224584
58.87;1.923828125;1;0.092200956;-1.731118064;2.996769753;3.144024119
77.14;1.923828125;0;0.265014571;-12.35006065;152.523998;56.91017538
78.33;1.923828125;0;-0.021006373;-0.924685995;0.855044189;0.617225069
88.085;1.923828125;0;0.262929916;5.343046805;28.54814916;46.53659238
95.075;1.923828125;0;0.190149001;-16.70703237;279.1249306;68.02288564
98.44;1.923828125;0;0.245005458;4.880892028;23.82310699;39.19261309
121.97;1.923828125;0;0.242026852;-10.92293025;119.3104053;41.47587157
125.485;1.923828125;0;0.226013968;-10.20331811;104.1077004;38.01428122
51.22;1.918945313;0;0.234301295;2.707201759;7.328941365;32.54590437
65.76;1.918945313;0;0.23043745;4.159184782;17.29881805;33.97348875
77.445;1.918945313;0;0.09473661;-1.262240675;1.593251522;15.03310009
78.38;1.918945313;0;0.041701482;0.054513561;0.002971728;1.40981473
82.15;1.918945313;0;0.253962961;6.425740077;41.29013554;44.51168006
124.64;1.918945313;0;0.206895335;3.416965057;11.6756502;28.23468611
3.43;1.9140625;0;0.379863562;8.271773741;68.42224082;151.2294913
13.075;1.9140625;0;0.244052848;4.881009806;23.82425672;37.77502282
23.245;1.9140625;0;0.251938932;-8.973487907;80.52348522;39.46035245
34.38;1.9140625;0;0.227052654;7.449354059;55.4928759;39.14184684
46.375;1.9140625;0;0.243712947;4.447188868;19.77748883;35.51501183
76.64;1.9140625;0;0.204089523;-2.982549544;8.895601785;50.39440845
87.11;1.9140625;0;0.234496144;-11.19250255;125.2721134;43.72534176
133.195;1.9140625;1;0.224186217;4.978345051;24.78391945;33.87945222
160.28;1.9140625;0;0.226835032;5.691004851;32.38753621;34.24442201
5.95;1.909179688;0;0.248226664;6.030235801;36.36374382;44.24823518
27.08;1.909179688;0;0.238014128;-8.745063223;76.47613078;43.02801286
36.485;1.909179688;0;0.215211261;-13.91300406;193.571682;48.95095492
50.27;1.909179688;0;0.260215025;4.13949025;17.13537953;39.4832162
78.275;1.909179688;0;0.001166744;0.920575049;0.84745842;7.867774661
78.31;1.909179688;0;0.006832376;-1.251939667;1.567352931;0.978338643
79.76;1.909179688;0;0.250234741;1.37213336;1.882749957;32.27694829
82.17;1.909179688;0;0.197419801;-15.91209969;253.1949164;57.61383802
91.91;1.909179688;0;0.258276295;5.072291211;25.72813813;44.13733565
110.02;1.909179688;0;0.058734164;-2.319319994;5.379245237;1.992982087
129.075;1.909179688;1;0.217897997;-13.95806323;194.8275291;48.82255527
132.24;1.909179688;0;0.249594701;3.590420051;12.89111614;35.49894998
30.075;1.904296875;0;0.15758345;-16.62641781;276.4377693;55.07590001
76.74;1.904296875;0;0.01277249;-12.06367243;145.5321926;82.65615635
117.225;1.904296875;0;0.247141015;-8.844934096;78.23285916;38.61628022
120.075;1.904296875;0;0.183469403;-13.90694463;193.403109;50.59265731
121.04;1.904296875;0;0.249064462;4.466528357;19.94987556;39.13451149
146.965;1.904296875;0;0.042475428;0.800519826;0.640831991;1.122027325
4.06;1.899414063;0;0.0755119;-4.199884233;17.63902757;5.455942431
18.055;1.899414063;0;0.235554725;-8.746627956;76.5035006;36.1367223
44.4;1.899414063;0;0.232376767;-10.53182745;110.9193894;39.14743534
58.875;1.899414063;0;0.083545366;-2.996576359;8.979469877;3.442525425
73.225;1.899414063;0;0.232429568;-9.627445545;92.68770773;41.76298038
75.83;1.899414063;0;0.262444842;-4.370801893;19.10390919;160.14396
76.935;1.899414063;0;0.012209677;-8.029192697;64.46793537;18.32671729
77.45;1.899414063;0;0.088425406;-2.870835867;8.241698574;12.87045958
77.925;1.899414063;0;0.140453347;0.194586744;0.037864001;10.65864044
78.28;1.899414063;0;0.005769619;0.81995149;0.672320446;5.955116475
90.985;1.899414063;0;0.231996851;-14.01851056;196.5186383;54.33390283
98.455;1.899414063;0;0.228116654;-12.27091597;150.5753788;45.22122552
103.81;1.899414063;0;0.23243935;2.20517248;4.862785667;29.39692068
110.015;1.899414063;0;0.05837413;0.0720068;0.005184979;1.813673913
121.285;1.899414063;0;0.04286746;-4.621932907;21.3622638;7.26388043
131.13;1.899414063;0;0.212835862;-14.63903653;214.3013904;51.61714373
133.205;1.899414063;0;0.248038937;-5.471504726;29.93736396;34.55226659
145.745;1.899414063;0;0.251516563;3.32098146;11.02891786;37.13042302
3.165;1.89453125;0;0.05035804;1.572460797;2.472632959;11.51514414
4.445;1.89453125;0;0.025836187;1.116223808;1.24595559;1.177979409
58.865;1.89453125;0;0.093385195;-0.236847773;0.056096867;3.044358768
67.725;1.89453125;1;0.240187311;-4.175045344;17.43100362;32.44402567
69.56;1.89453125;0;0.22671564;3.480348906;12.1128285;30.75641015
84.165;1.89453125;0;0.237595547;5.991541312;35.89856729;37.80778855
1.56;1.889648438;0;0.25486323;-11.44006781;130.8751515;50.01906772
2.935;1.889648438;0;0.074950194;-0.772834936;0.597273838;3.961387958
3.44;1.889648438;0;0.423820466;-7.86122979;61.79893381;140.7889329
4.05;1.889648438;0;0.101192974;-1.86617098;3.482594127;4.518723809
4.17;1.889648438;0;0.190653414;10.17378678;103.5059375;39.13578526
4.44;1.889648438;0;0.018589588;1.449319667;2.100527498;1.190761885
58.855;1.889648438;0;0.073978347;2.604281875;6.782284085;2.997403011
76.735;1.889648438;0;0.069933689;-11.43223983;130.6961076;78.24671922
77.94;1.889648438;1;0.108755925;-6.114447372;37.38646666;12.58135771
113.62;1.889648438;0;0.228757182;-13.14724807;172.8501318;46.84614131
118.17;1.889648438;0;0.256650724;4.79311158;22.97391861;40.73735876
121.955;1.889648438;0;0.23604946;6.217405075;38.65612587;37.07721169
129.06;1.889648438;0;0.261065568;3.331687566;11.10014204;39.93310622
151.505;1.889648438;0;0.226058131;-13.87919612;192.6320851;53.6806364
158.32;1.889648438;1;0.232201225;5.070136478;25.7062839;35.33836891
162.22;1.889648438;0;0.229900099;-11.91611709;141.9938464;43.92674663
2.895;1.884765625;0;0.019479696;3.411699959;11.63969661;4.027533073
4.045;1.884765625;0;0.102062067;-0.173818528;0.030212881;4.405050828
34.395;1.884765625;1;0.25653094;-9.076982579;82.39161274;41.51841627
35.405;1.884765625;0;0.249477814;6.524203324;42.56522902;43.36673125
47.37;1.884765625;0;0.221175228;4.321866769;18.67853237;30.63847122
58.88;1.884765625;0;0.068562484;-3.861062031;14.90780001;3.934128408
67.72;1.884765625;0;0.235301951;0.977071971;0.954669637;32.11670015
78.27;1.884765625;0;-0.003315203;0.896389528;0.803514187;9.143559649
78.315;1.884765625;0;0.000572677;-1.470837172;2.163361987;0.966858015
78.335;1.884765625;0;-0.025629803;-0.31084219;0.096622867;0.542195744
89.095;1.884765625;0;0.233549646;-8.715066339;75.95238129;41.13243819
96.185;1.884765625;0;0.222638799;-12.7954794;163.7242931;45.39758208
140.005;1.884765625;0;-0.131042656;-22.49473347;506.0130339;37.96310705
146.95;1.884765625;0;0.020170325;1.715937611;2.944441884;1.007005997
156.335;1.884765625;0;0.247611885;5.851937841;34.24517649;42.06576572
2.94;1.879882813;0;0.071086019;-1.433027694;2.053568372;4.012416786
39.565;1.879882813;0;0.24185863;5.761154478;33.19090092;40.3470487
56.995;1.879882813;0;0.20788866;-12.82103909;164.3790435;44.28931154
59.015;1.879882813;1;0.184584627;-12.53937085;157.2358214;38.66359007
59.02;1.879882813;0;0.121887773;-14.76220134;217.9225884;45.82778402
75.44;1.879882813;0;0.136792038;-3.518558057;12.3802508;42.02299053
75.55;1.879882813;0;-0.004986127;-2.348786508;5.516798059;37.13582756
76.495;1.879882813;0;0.110042876;-9.758937388;95.23685895;30.21297755
77.92;1.879882813;0;0.128047682;2.481133001;6.156020966;10.90129616
78.285;1.879882813;0;0.009869377;0.604231954;0.365096255;3.933734714
87.095;1.879882813;0;0.239784302;5.389668543;29.048527;39.17379715
90.065;1.879882813;0;0.218404573;-11.21588206;125.7960103;39.70900095
134.14;1.879882813;1;0.204083451;-15.51119833;240.5972737;60.11305235
139.985;1.879882813;0;0.255224049;6.938091983;48.13712037;46.95799597
146.97;1.879882813;0;0.046478027;0.298278486;0.088970055;1.092890257
4.055;1.875;0;0.091862119;-3.270043751;10.69318614;4.874700888
4.42;1.875;0;-0.012299895;1.331899787;1.773957043;2.029656099
58.86;1.875;0;0.086999756;1.277087737;1.630953089;3.045267619
75.49;1.875;0;-0.110184112;8.209524742;67.39629649;29.98755961
77.15;1.875;0;0.11908143;-19.0413631;362.5735088;78.3097499
77.725;1.875;1;0.055327313;-6.262481734;39.21867747;16.48587151
77.935;1.875;0;0.130561492;-4.361113392;19.01931002;11.33601722
77.945;1.875;0;0.078183689;-7.219907885;52.12706986;14.30533624
78.095;1.875;1;0.00639479;-12.26138391;150.3415353;38.45871528
78.29;1.875;0;0.012890537;0.292351463;0.085469378;2.315746078
78.37;1.875;0;0.027387191;1.837218975;3.375373562;1.391320525
85.13;1.875;0;0.243427045;-10.14559584;102.933115;33.51685581
105.8;1.875;0;0.22238359;-13.16629838;173.3514131;48.04423321
119.135;1.875;1;0.230452189;-9.342759982;87.28716407;35.45033444
146.945;1.875;0;0.011259593;1.78214649;3.176046112;0.993222587
146.98;1.875;0;0.046682312;-0.829101523;0.687409336;1.073256256
4.065;1.870117188;0;0.054512479;-4.559500428;20.78904415;6.13337819
14.105;1.870117188;0;0.234608365;-7.493791724;56.1569144;32.7052392
34.405;1.870117188;0;0.144523701;-15.8143801;250.094618;55.61705684
78.325;1.870117188;0;-0.014338817;-1.333511216;1.778252162;0.736976095
81.325;1.870117188;0;0.264595155;5.227627573;27.32809004;46.63985938
146.975;1.870117188;0;0.04796942;-0.257421493;0.066265825;1.06484196
158.335;1.870117188;0;0.225086695;-10.96945115;120.3288585;39.8839336
2.445;1.865234375;0;0.209758006;4.868376822;23.70109289;30.06322979
3.325;1.865234375;0;0.254736044;-13.03451138;169.8984869;50.6351719
4.435;1.865234375;0;0.01042854;1.632209629;2.664108274;1.302966311
17.055;1.865234375;0;0.191426241;-16.11456694;259.6792676;57.08825833
26.185;1.865234375;0;0.219027923;-10.94525194;119.79854;39.79195423
30.055;1.865234375;0;0.243944649;4.648620295;21.60967065;38.3185078
66.74;1.865234375;0;0.252678886;3.285521661;10.79465258;37.58861607
75.77;1.865234375;0;-0.03832445;-18.27380819;333.9320658;121.2294101
76.73;1.865234375;0;0.115356598;-9.084581663;82.52962399;75.26588208
77.715;1.865234375;0;0.098197846;-3.362475408;11.30624087;17.04884774
77.93;1.865234375;0;0.141426281;-2.172957675;4.721745057;10.7175001
77.95;1.865234375;0;0.042084149;-7.543675397;56.9070385;16.18637131
78.305;1.865234375;0;0.011383798;-0.910284478;0.82861783;0.929673444
82.41;1.865234375;0;-0.002112237;1.808126011;3.269319673;1.163259967
108.83;1.865234375;0;0.23862564;5.505278171;30.30808774;36.90175327
122.87;1.865234375;1;0.230074174;-14.85928865;220.7984592;59.41846807
134.12;1.865234375;0;0.246333927;7.290888206;53.15705083;48.26021963
137.135;1.865234375;0;0.220906106;6.560618133;43.04171029;36.9154004
144.76;1.865234375;0;0.216952219;-13.33911799;177.9320686;46.81287541
146.7;1.865234375;0;0.214167729;-12.54908475;157.4795281;43.67738051
4.04;1.860351563;0;0.094212687;1.569875856;2.464510204;4.418538293
4.405;1.860351563;0;-0.022831482;0.365744328;0.133768914;2.27028168
4.45;1.860351563;0;0.031417306;0.655404494;0.429555051;1.191312604
37.545;1.860351563;0;0.225255747;-9.688620277;93.86936287;35.32108868
58.85;1.860351563;0;0.056090785;3.577512316;12.79859437;2.780672881
59.025;1.860351563;0;0.048076766;-15.0160598;225.482052;53.04453676
63.17;1.860351563;0;0.045439348;0.124826346;0.015581617;0.968461805
78.15;1.860351563;0;0.03081589;3.413649315;11.65300164;47.103905
97.33;1.860351563;0;0.206206014;-13.65170459;186.3690382;46.64703361
112.745;1.860351563;0;0.219237116;-13.58196018;184.4696425;47.92354688
138.1;1.860351563;0;0.237679421;5.783703002;33.45122042;38.3390269
146.955;1.860351563;0;0.028750013;1.527242144;2.332468567;1.067493937
146.96;1.860351563;0;0.036386224;1.217840863;1.483136368;1.116627137
150.545;1.860351563;0;0.217521671;7.561251443;57.17252339;38.61335706
4.385;1.85546875;0;-0.015987544;-0.693228302;0.480565478;10.91864361
4.415;1.85546875;0;-0.01748369;1.036758868;1.074868949;2.064945108
4.46;1.85546875;0;0.035229532;-0.475254266;0.225866617;1.110915938
5.035;1.85546875;0;0.235945372;5.545915471;30.75717841;13.72280687
42.45;1.85546875;0;0.231695999;-8.545637503;73.02792033;36.05833362
52.145;1.85546875;0;0.208428566;-12.72899657;162.0273537;43.36500583
58.99;1.85546875;0;0.152295862;10.42926122;108.7694896;30.19844332
61.95;1.85546875;0;0.205103694;-15.70946317;246.787233;59.31086279
70.42;1.85546875;0;0.233554998;4.860897208;23.62832167;36.02414544
75.105;1.85546875;0;0.019634565;-15.02328445;225.6990757;60.68705302
77.155;1.85546875;0;0.023874615;-18.65081277;347.852817;89.4755829
77.36;1.85546875;0;0.029836243;-1.496424271;2.2392856;26.90343939
78.23;1.85546875;0;0.002078954;-0.598238148;0.357888882;30.00999224
78.265;1.85546875;0;-0.007066018;0.750162853;0.562744306;9.58767377
90.075;1.85546875;0;0.088270125;-16.39869504;268.9171989;55.98510585
111.795;1.85546875;0;0.240880936;5.701286762;32.50467074;37.9119536
123.78;1.85546875;1;0.224861935;-13.00336751;169.0875666;48.16223564
146.93;1.85546875;0;-0.012274422;1.37973921;1.903680287;1.287569471
146.94;1.85546875;0;0.002585526;1.734813314;3.009577234;1.06383124
146.985;1.85546875;0;0.042536805;-1.376059864;1.893540749;1.135080234
157.32;1.85546875;0;0.236659564;5.889838574;34.69019843;38.8450645
4.365;1.850585938;0;0.005006202;-1.190160993;1.41648319;14.42066927
4.41;1.850585938;0;-0.02100276;0.703814062;0.495354233;2.031850691
4.425;1.850585938;0;-0.005640396;1.552146472;2.409158669;1.825172402
22.225;1.850585938;0;0.209419365;-14.04347542;197.2192019;47.879054
43.405;1.850585938;0;0.21463235;-13.34241542;178.0200493;44.97024472
61.93;1.850585938;0;0.24928513;7.16784123;51.37794789;47.11287659
63.165;1.850585938;0;0.041487961;0.79027737;0.624538322;0.995266382
63.845;1.850585938;0;0.221304964;-15.28390396;233.5977202;58.93886952
66.755;1.850585938;0;0.213386433;-13.31923309;177.4019701;44.93889085
82.425;1.850585938;0;0.027802757;1.919541399;3.684639183;1.507196962
110.01;1.850585938;0;0.046103482;2.454129709;6.022752627;1.81350108
125.47;1.850585938;0;0.21970227;5.891213949;34.7064018;34.80547297
128.12;1.850585938;1;0.208352468;-11.08430595;122.8618384;33.30304688
134.405;1.850585938;0;0.046995262;1.219800822;1.487914046;1.376451336
146.935;1.850585938;0;-0.005375726;1.592250507;2.535261678;1.191397398
148.625;1.850585938;0;0.223110338;5.073528388;25.7406903;32.91305418
149.615;1.850585938;0;0.217947523;-14.24697658;202.9763418;51.89333356
153.7;1.850585938;0;0.049498171;0.490601774;0.2406901;1.33965521
153.705;1.850585938;0;0.05195118;-0.218141013;0.047585502;1.312707483
0.68;1.845703125;0;0.260861855;7.388298127;54.58694922;51.18476254
2.965;1.845703125;0;-0.010574635;-5.495720621;30.20294514;6.921571051
4.035;1.845703125;0;0.078606164;3.121304676;9.742542881;4.369836722
4.07;1.845703125;0;0.031714977;-4.363941614;19.04398641;6.747182886
4.345;1.845703125;0;0.023720393;-0.564131586;0.318244446;39.87575057
4.375;1.845703125;0;-0.006570969;-1.014257355;1.028717981;13.97420183
4.38;1.845703125;0;-0.011642256;-0.869057575;0.755261069;13.08200786
4.455;1.845703125;0;0.034694328;0.107040825;0.011457738;1.171663869
8.915;1.845703125;0;0.214967463;5.71297974;32.63813751;33.03391665
15.09;1.845703125;0;0.178994695;-13.44183222;180.6828536;38.59773903
25.26;1.845703125;0;0.094236834;-14.78032575;218.4580292;45.28063504
53.11;1.845703125;0;0.206321065;-13.63703518;185.9687285;45.51186602
58.885;1.845703125;1;0.049257174;-4.22436136;17.8452289;4.516325524
58.89;1.845703125;1;0.028135367;-4.080663443;16.65181413;5.051332938
60.98;1.845703125;0;0.237847149;-8.470506732;71.7494843;35.0317944
73.21;1.845703125;0;0.213870339;6.811256377;46.39321343;38.79619655
75.165;1.845703125;0;0.107891625;-6.97827098;48.69626588;83.06122886
78.25;1.845703125;0;-0.009740811;-0.149435109;0.022330852;11.70930808
78.96;1.845703125;0;0.059742658;-15.71295666;246.8970069;51.12419848
80.805;1.845703125;0;0.018524962;1.739254928;3.025007705;1.010417771
82.37;1.845703125;0;-0.016714827;0.088395687;0.007813798;5.082866725
90.07;1.845703125;0;0.162325163;-14.81100767;219.3659481;47.02119922
100.64;1.845703125;0;0.240853971;6.493672814;42.16778661;39.07461407
122.73;1.845703125;0;0.1081527;-3.9116051;15.30065445;6.523848598
128.13;1.845703125;0;0.081658379;-15.56560024;242.2879109;48.05599567
136.185;1.845703125;0;0.230254109;6.484730879;42.05173457;38.6570811
147.65;1.845703125;0;0.220799696;6.249741697;39.05927128;34.45752957
4.36;1.840820313;0;0.010950828;-1.188925093;1.413542876;16.94105831
4.4;1.840820313;0;-0.023066172;0.046938022;0.002203178;3.233240782
4.465;1.840820313;0;0.032853261;-1.030858289;1.062668812;1.045548303
7.915;1.840820313;0;0.208058496;-14.0220978;196.6192266;49.82641235
19.27;1.840820313;0;0.008682983;1.610451272;2.5935533;2.366395593
21.125;1.840820313;0;0.214293342;7.492722055;56.14088379;36.29350389
25.25;1.840820313;0;0.208343524;-9.715208321;94.38527272;32.44672891
28.95;1.840820313;0;0.216230512;-14.20332302;201.7343849;51.40453781
45.35;1.840820313;0;0.225935948;7.191617674;51.71936477;41.41484926
55.03;1.840820313;0;0.311788409;-17.68003328;312.5835769;70.7355169
58.02;1.840820313;0;0.219266985;5.907918608;34.90350228;33.80098879
75.59;1.840820313;0;-0.002936068;-3.073775016;9.448092846;32.42036848
77.46;1.840820313;0;0.053168746;-5.049067954;25.4930872;11.02333681
78.17;1.840820313;0;0.04536159;-2.270452986;5.15495676;47.32089866
78.19;1.840820313;0;0.003757881;-0.85664182;0.733835208;44.25426398
78.93;1.840820313;0;0.19655841;7.402942382;54.80355591;29.90203702
101.72;1.840820313;0;0.20647822;-14.41803121;207.879624;49.78044726
102.76;1.840820313;0;0.236238919;6.354459034;40.37914962;39.2131681
106.81;1.840820313;0;0.205661791;-12.44105368;154.7798168;41.05734539
142.82;1.840820313;0;0.230062214;6.576247966;43.24703731;40.68406776
153.685;1.840820313;1;0.026191214;1.927815888;3.716474098;1.295331981
164.14;1.840820313;1;0.22699835;5.72505502;32.77625498;33.75044724
4.43;1.8359375;0;0.002120336;1.661640802;2.761050155;1.537905999
4.47;1.8359375;0;0.027698969;-1.499915845;2.249747542;1.022894878
8.93;1.8359375;0;0.221542055;-9.832123213;96.67064688;36.11166166
11.04;1.8359375;0;0.205898843;-13.60228365;185.0221206;47.07103946
35.425;1.8359375;0;0.198275331;-15.58709156;242.9574234;55.9877372
45.62;1.8359375;0;0.01831142;1.865164608;3.478839015;1.346953092
48.35;1.8359375;0;0.232368359;5.832539647;34.01851874;35.29442562
63.15;1.8359375;0;0.016597861;1.908289262;3.641567908;0.880697665
63.825;1.8359375;1;0.249337126;7.91372092;62.6269788;47.76027453
67.03;1.8359375;0;0.049747948;0.376484152;0.141740317;1.345799391
74.53;1.8359375;0;0.04818553;-0.524159672;0.274743362;1.725154926
75.32;1.8359375;0;0.177460966;-7.345983526;53.96347396;84.44315669
77.425;1.8359375;0;0.042584138;4.420488317;19.54071696;17.84728848
78.18;1.8359375;1;0.021963299;-2.108927442;4.447574957;47.2863763
78.225;1.8359375;0;0.003964376;-0.377084291;0.142192563;32.60708105
78.255;1.8359375;0;-0.010487987;0.183785874;0.033777247;9.966848143
78.3;1.8359375;0;0.013907396;-0.504719576;0.25474185;0.968022657
78.36;1.8359375;0;0.002704544;2.563289633;6.570453743;1.092714276
80.56;1.8359375;0;0.205414283;-10.60971759;112.5661073;34.60997128
82.39;1.8359375;0;-0.01738864;0.168010579;0.028227555;1.518853294
82.4;1.8359375;0;-0.013957428;0.956108143;0.914142781;1.338574511
82.415;1.8359375;0;0.006928393;2.062611403;4.254365798;1.260103202
82.43;1.8359375;0;0.037400464;1.481447413;2.194686438;1.506383495
82.45;1.8359375;0;0.045164052;-1.588118477;2.522120298;1.433853901
88.105;1.8359375;0;0.182203464;-16.61345532;276.0068978;62.05949579
122.85;1.8359375;1;0.242640512;8.763199188;76.79366001;49.43544453
130.11;1.8359375;0;0.224155565;6.236145445;38.88951001;26.70262441
146.925;1.8359375;0;-0.017905413;1.126198183;1.268322348;1.282281247
153.68;1.8359375;0;0.01594231;2.049780622;4.201600598;1.171813034
2.89;1.831054688;0;0.000492778;3.797383609;14.42012228;3.722829339
3.425;1.831054688;0;0.308081153;14.35648192;206.1085731;151.0432615
4.35;1.831054688;0;0.020899735;-0.892637976;0.796802556;30.79484201
4.355;1.831054688;0;0.016436545;-1.097143356;1.203723544;22.53920734
4.39;1.831054688;0;-0.019453685;-0.484350796;0.234595694;7.993617013
19.03;1.831054688;0;0.220984506;-14.16800333;200.7323184;52.54625364
31.18;1.831054688;0;0.215209999;-11.29132643;127.4940526;38.83343488
32.26;1.831054688;0;0.231161577;5.405530827;29.21976352;36.27521124
58.895;1.831054688;0;0.00773205;-3.522782457;12.40999624;5.440463052
63.155;1.831054688;0;0.026139307;1.726720153;2.981562488;0.976403202
78.22;1.831054688;0;0.004374885;-0.082101795;0.006740705;33.47801001
78.295;1.831054688;0;0.014352294;-0.088979577;0.007917365;1.34796465
78.345;1.831054688;0;-0.024982593;1.224643911;1.49975271;0.572254511
78.39;1.831054688;0;0.037293586;-1.807223331;3.266056169;1.518569865
78.95;1.831054688;0;0.194960732;-12.14169427;147.4207397;36.26185
78.955;1.831054688;0;0.134252261;-14.9019206;222.0672375;43.45103066
80.81;1.831054688;0;0.027221237;1.562394443;2.441076397;0.886429852
82.375;1.831054688;0;-0.016272848;-0.056345176;0.003174779;2.934201578
82.405;1.831054688;0;-0.009176887;1.412930084;1.996371421;1.195574481
82.445;1.831054688;0;0.04917039;-0.801267624;0.642029806;1.350640584
83.39;1.831054688;0;0.01766381;2.227520006;4.961845377;1.243314053
89.925;1.831054688;1;0.104476255;-1.826106264;3.334664086;3.914044094
101.7;1.831054688;0;0.230263932;7.553176278;57.05047189;39.65011911
110.025;1.831054688;0;0.047137564;-4.260999437;18.1561162;2.598185961
115.38;1.831054688;0;0.203557806;-16.1006627;259.2313392;57.00375396
117.21;1.831054688;0;0.215077394;7.515498102;56.48271172;36.34627788
134.38;1.831054688;0;-0.005933916;1.960491393;3.843526501;0.901702172
134.39;1.831054688;0;0.015104856;2.343604261;5.492480933;1.205229397
134.415;1.831054688;1;0.055293583;-0.433585801;0.187996647;1.295708926
134.42;1.831054688;0;0.053125654;-1.304501407;1.701723921;1.349107185
153.69;1.831054688;0;0.035830293;1.612968597;2.601667695;1.369847756
4.37;1.826171875;0;-0.000944602;-1.125273307;1.266240015;13.98105786
16.06;1.826171875;0;0.207268462;7.545677416;56.93724767;36.24971297
19.255;1.826171875;0;-0.013217494;1.320472973;1.743648871;2.544189036
20.09;1.826171875;0;0.174897749;-13.19748417;174.1735885;38.35520148
38.55;1.826171875;0;0.235533028;6.150192922;37.82487298;39.43614248
41.485;1.826171875;0;0.228342451;5.890635395;34.69958536;37.17128214
45.615;1.826171875;0;0.00896352;1.869580085;3.495329695;1.231714894
45.64;1.826171875;0;0.046119223;0.110013192;0.012102902;1.26934585
67.025;1.826171875;0;0.044556359;1.038317736;1.078103722;1.364764254
77.21;1.826171875;0;0.069326791;1.94589566;3.786509918;117.240278
77.915;1.826171875;0;0.105780753;4.45338589;19.83264588;11.07470842
78.175;1.826171875;0;0.034009325;-2.409205203;5.804269711;47.47882871
78.235;1.826171875;0;-0.000912236;-0.690975127;0.477446625;25.62101544
78.32;1.826171875;1;-0.006781508;-1.511461776;2.284516699;0.87117668
78.415;1.826171875;0;-0.023903681;-1.875966881;3.519251738;2.510852156
78.795;1.826171875;0;0.098791636;1.342930271;1.803461712;5.555547325
78.805;1.826171875;0;0.102346203;-2.528204404;6.391817509;5.770089383
82.435;1.826171875;0;0.044807701;0.832256893;0.692651536;1.432401593
82.44;1.826171875;0;0.048968985;0.040281047;0.001622563;1.358127191
83.405;1.826171875;0;0.045092079;0.645409325;0.416553197;1.265225654
85.14;1.826171875;0;0.123310874;-15.86303118;251.6357581;48.3243428
119.12;1.826171875;0;0.216271017;6.142169357;37.72624442;32.74081026
124.91;1.826171875;0;0.017656306;1.664822863;2.771635165;0.534780655
124.93;1.826171875;0;0.038467421;-0.376279387;0.141586177;0.573646091
134.37;1.826171875;0;-0.019013457;1.071072194;1.147195645;1.039719681
134.385;1.826171875;0;0.003868541;2.247263096;5.050191421;1.02331162
134.41;1.826171875;1;0.053094266;0.439863375;0.193479788;1.318817584
150.565;1.826171875;0;0.200720763;-13.57625422;184.3146787;47.04380351
153.695;1.826171875;1;0.043895136;1.120607065;1.255760194;1.375411932
159.33;1.826171875;0;0.192079792;-15.04766509;226.4322247;51.10379957
9.95;1.821289063;0;0.199366061;-14.95586382;223.6778625;52.63787382
12.055;1.821289063;0;0.201507393;-12.0070077;144.1682339;39.84797328
19.26;1.821289063;0;-0.006615129;1.477319189;2.182471986;2.470440444
19.275;1.821289063;0;0.016735239;1.541016901;2.374733088;2.427324927
21.145;1.821289063;0;0.200330713;-13.25763588;175.7649091;44.31148694
37.53;1.821289063;0;0.217598204;5.700321315;32.49366309;32.65273465
40.525;1.821289063;0;0.205273438;7.169674552;51.40423318;33.31936705
72.215;1.821289063;0;0.240552152;8.979202372;80.62607524;49.10124004
72.49;1.821289063;0;0.015193129;2.077174461;4.314653742;1.469297505
74.525;1.821289063;0;0.047600648;0.116976408;0.01368348;1.837872184
76.065;1.821289063;0;0.061718007;-5.338391317;28.49842185;31.14419495
77.12;1.821289063;0;0.197546088;12.24086306;149.8387284;56.73037175
77.455;1.821289063;0;0.074071227;-4.180496198;17.47654846;11.38103155
78.155;1.821289063;0;0.047884137;1.406802833;1.979094211;47.16269464
78.165;1.821289063;0;0.053279577;-1.583597435;2.507780836;47.15732396
78.195;1.821289063;1;-0.000525328;-0.24084154;0.058004647;41.28144878
81.61;1.821289063;0;0.06555911;0.241804341;0.058469339;2.259756671
82.365;1.821289063;0;-0.017962924;0.249619372;0.062309831;8.08822094
82.395;1.821289063;0;-0.016548587;0.518231778;0.268564176;1.479349811
83.14;1.821289063;1;0.160132007;-16.72522476;279.7331434;60.14408278
83.395;1.821289063;0;0.02880141;1.90256478;3.619752742;1.343169554
83.41;1.821289063;0;0.048319126;-0.146744664;0.021533996;1.197827572
84.185;1.821289063;0;0.185894379;-14.83104154;219.9597931;49.57922788
89.085;1.821289063;0;0.234487308;2.891790128;8.362450146;39.04345139
89.93;1.821289063;0;0.095345724;-3.239245804;10.49271338;4.261263991
139.05;1.821289063;0;0.209711028;7.94402634;63.10755449;35.73825847
141.89;1.821289063;0;0.214555929;-11.72411861;137.4549572;41.07505034
146.92;1.821289063;0;-0.02220637;0.860191256;0.739928996;1.245301289
146.99;1.821289063;0;0.035656505;-1.857218806;3.449261694;1.246553965
151.485;1.821289063;0;0.223828136;9.068314022;82.23431919;45.33885371
156.355;1.821289063;0;0.182696896;-15.8605022;251.55553;55.74655476
160.295;1.821289063;0;0.231628636;-10.07427607;101.4910384;37.92173346
163.17;1.821289063;0;0.20567879;-15.37071206;236.2587892;56.21841252
0.7;1.81640625;0;0.215588526;-16.07499772;258.4055518;64.25093607
4.03;1.81640625;0;0.057237377;4.273757465;18.26500287;4.097514946
4.395;1.81640625;0;-0.021875439;-0.238146501;0.056713756;5.200679832
4.48;1.81640625;0;0.011042312;-1.99033769;3.961444121;1.170156764
5.055;1.81640625;0;0.194084862;-14.47160329;209.4273017;24.84813016
5.97;1.81640625;0;0.189134638;-15.43341736;238.1903715;56.47754577
17.31;1.81640625;0;0.026905872;1.787237368;3.19421741;1.308669611
19.28;1.81640625;0;0.024440324;1.361224311;1.852931625;2.482167802
22.205;1.81640625;0;0.224828906;7.835763514;61.39918984;38.75731499
45.6;1.81640625;0;-0.011620046;1.020896831;1.04223034;1.201928754
45.625;1.81640625;0;0.027637243;1.667142404;2.779363794;1.408006125
62.895;1.81640625;0;0.209043745;-11.33473031;128.4761112;39.35786979
63.14;1.81640625;0;-0.001180583;1.67309054;2.799231957;0.705990642
63.175;1.81640625;0;0.04606348;-0.581997427;0.338721005;0.972006394
67.01;1.81640625;0;0.018461874;1.868398677;3.490913615;1.204279133
68.65;1.81640625;0;0.154108863;-17.67913893;312.5519532;67.60073159
71.335;1.81640625;0;0.212219907;-11.82825368;139.907585;40.19566539
72.085;1.81640625;0;0.134753111;-0.514092756;0.264291362;7.677079228
75.525;1.81640625;0;0.101029788;-2.810240416;7.897451193;34.51570332
75.68;1.81640625;0;0.117804475;-13.44237469;180.6974372;34.21084893
76.7;1.81640625;0;-0.030224362;12.33277681;152.0973839;71.14498549
77.385;1.81640625;0;-0.044550907;-2.123470971;4.509128963;23.24120362
78.185;1.81640625;0;0.011418662;-1.532156203;2.34750263;46.30435475
78.21;1.81640625;0;0.00134695;0.398917303;0.159135014;33.85423653
78.245;1.81640625;0;-0.007538173;-0.440527597;0.194064563;15.26632417
82.42;1.81640625;0;0.01724145;2.112261229;4.4616475;1.408480518
110.005;1.81640625;0;0.024294388;4.361818747;19.02546278;1.612742659
110.795;1.81640625;0;0.229220596;6.737326894;45.39157368;36.67161667
121.275;1.81640625;0;0.068548522;-1.705302443;2.908056422;6.250706412
124.05;1.81640625;0;0.067547173;-0.450920846;0.203329609;2.722094217
128.39;1.81640625;0;0.040746439;0.711064578;0.505612834;1.100143914
132.255;1.81640625;0;0.216487392;-12.77451312;163.1881854;42.63847422
134.36;1.81640625;0;-0.02312173;0.213481244;0.045574242;1.224062303
134.395;1.81640625;1;0.026822877;2.2078345;4.874533178;1.351207064
134.4;1.81640625;0;0.03786205;1.826642394;3.336622437;1.405408304
153.665;1.81640625;0;-0.010290537;1.475695851;2.177678244;1.077621796
153.71;1.81640625;1;0.050860475;-0.935936028;0.875976249;1.334988143
161.265;1.81640625;0;0.198479002;-14.87687332;221.3213597;51.03333638
4.025;1.811523438;0;0.032781661;4.891143146;23.92328127;3.553189564
9.93;1.811523438;0;0.238326762;6.941980703;48.19109608;41.65241332
17.315;1.811523438;0;0.035842059;1.379813993;1.903886656;1.325985957
17.32;1.811523438;0;0.042741129;0.781180769;0.610243393;1.274314492
26.445;1.811523438;0;0.032869878;1.573646229;2.476362455;1.229977996
42.435;1.811523438;0;0.210867898;6.327731737;40.04018893;34.20466443
58.835;1.811523438;0;-0.003773462;3.744034076;14.01779117;1.249648109
58.84;1.811523438;0;0.014946708;4.133625463;17.08685947;1.813641823
58.845;1.811523438;0;0.035614835;4.095189969;16.77058089;2.364121044
63.13;1.811523438;0;-0.012379903;0.911972274;0.831693428;0.882822787
63.135;1.811523438;0;-0.007820042;1.32789168;1.763296313;0.751981209
63.145;1.811523438;0;0.007184869;1.88259828;3.544176282;0.766116565
63.16;1.811523438;0;0.034772908;1.343010655;1.80367762;1.011629462
63.185;1.811523438;0;0.036884238;-1.81965471;3.311143265;1.118476763
63.69;1.811523438;0;0.111605353;1.787600512;3.195515591;5.307671012
63.7;1.811523438;0;0.119802205;-2.057370961;4.232775271;5.44832544
66.99;1.811523438;0;-0.004468472;0.530997879;0.281958747;1.687217858
72.485;1.811523438;0;0.00470103;2.098419751;4.403365451;1.332385124
72.505;1.811523438;1;0.041998744;0.874093871;0.764040096;1.373165971
74.51;1.811523438;1;0.027844737;1.827842108;3.341006772;1.903659834
77.71;1.811523438;0;0.103164171;-0.993264874;0.986575109;17.34755566
78.13;1.811523438;0;-0.108144286;7.619190641;58.05206603;42.38862157
78.2;1.811523438;1;-0.001729536;0.20138494;0.040555894;38.02033705
78.205;1.811523438;0;-0.000722611;0.413912226;0.171323331;35.3389976
78.24;1.811523438;0;-0.004367112;-0.634212291;0.40222523;20.27123986
78.26;1.811523438;1;-0.009569058;0.500607976;0.250608346;9.573600418
78.405;1.811523438;0;0.002172743;-2.767146278;7.657098522;2.220876116
78.79;1.811523438;0;0.083146573;3.129012619;9.790719968;5.530691446
78.8;1.811523438;1;0.105506287;-0.632016841;0.399445287;5.557039607
78.81;1.811523438;0;0.089705181;-4.086804687;16.70197255;6.312445252
82.38;1.811523438;0;-0.016554574;-0.117819342;0.013881397;1.848063724
83.35;1.811523438;0;-0.021202867;-0.459486245;0.211127609;1.652475119
83.4;1.811523438;0;0.038314234;1.355569049;1.837567447;1.338331715
83.415;1.811523438;0;0.047585403;-0.929937027;0.864782874;1.196988227
101.98;1.811523438;0;0.022380898;1.348336004;1.81800998;0.907084771
115.36;1.811523438;0;0.250788339;7.061082914;49.85889192;43.6772709
116.3;1.811523438;0;0.199276744;-14.89062811;221.7308056;50.41311045
124.905;1.811523438;0;0.00877886;1.775489147;3.15236171;0.566656211
128.365;1.811523438;0;-0.000204971;1.777088819;3.158044672;0.850334974
134.425;1.811523438;0;0.046603147;-2.074099189;4.301887448;1.488583181
146.905;1.811523438;0;-0.028048479;0.184029878;0.033866996;4.18993609
147.525;1.811523438;0;0.108000766;-2.311026072;5.340841506;5.011585257
156.625;1.811523438;0;0.045576957;0.256697843;0.065893783;1.170684143
4.205;1.806640625;0;0.01795113;-15.77570169;248.8727637;68.5482846
4.325;1.806640625;0;0.010492787;1.415317879;2.003124698;53.18721493
17.3;1.806640625;0;0.007436429;1.924910125;3.70527899;1.089365458
19.265;1.806640625;0;0.000771467;1.582303222;2.503683487;2.381485296
27.315;1.806640625;0;0.002050194;0.789931936;0.623992464;2.055158852
32.28;1.806640625;0;0.171851123;-14.69944708;216.0737443;47.75310549
45.645;1.806640625;0;0.046669289;-0.558327819;0.311729953;1.265185795
58.31;1.806640625;0;0.04306443;0.278624582;0.077631658;1.110137975
59.25;1.806640625;0;-0.009185727;1.572191299;2.471785481;1.743282389
59.255;1.806640625;0;-0.001324771;1.750972521;3.06590477;1.657651407
59.275;1.806640625;1;0.033625907;1.29100288;1.666688437;1.848874591
63.11;1.806640625;0;-0.014227408;-0.185591954;0.034444373;1.280184748
67.015;1.806640625;0;0.027803868;1.816289802;3.298908645;1.312841403
72.09;1.806640625;0;0.132182648;-2.842729503;8.081111028;7.940043173
72.24;1.806640625;0;0.151413822;-18.19710364;331.1345809;70.40638702
73.23;1.806640625;0;0.18429234;-13.46397544;181.2786346;47.76175861
73.49;1.806640625;0;0.020925893;0.492971818;0.243021213;0.787886233
77.345;1.806640625;0;-0.002922167;3.959421264;15.67701674;31.2653374
78.215;1.806640625;0;0.003341537;0.206669631;0.042712336;33.50388288
78.375;1.806640625;0;0.036573286;1.025639242;1.051935855;1.421645302
80.79;1.806640625;0;-0.006763417;1.546798651;2.392586065;1.270563079
80.815;1.806640625;0;0.035033209;1.264468684;1.598881053;0.814328994
80.83;1.806640625;0;0.047486211;-0.182968243;0.033477378;0.763850521
82.025;1.806640625;0;0.110262162;-2.330623692;5.431806796;6.280379405
82.385;1.806640625;0;-0.017143671;-0.048993742;0.002400387;1.531874906
83.115;1.806640625;0;0.21643539;9.418111351;88.70082141;43.10412017
83.37;1.806640625;0;-0.019765045;1.274256435;1.623729462;1.162274528
85.135;1.806640625;0;0.192699066;-13.87763855;192.5888517;39.9364842
89.915;1.806640625;0;0.097605551;1.533573112;2.35184649;3.802542975
89.92;1.806640625;0;0.105273416;-0.15943223;0.025418636;3.803374936
90.045;1.806640625;0;0.170057519;10.38611288;107.8713408;33.23579663
122.735;1.806640625;0;0.088594675;-5.070989129;25.71493075;7.366690555
124.9;1.806640625;0;0.000353438;1.685084466;2.839509659;0.700160362
128.125;1.806640625;0;0.152930938;-14.25451178;203.1911062;40.07377426
128.37;1.806640625;0;0.008680473;1.854373414;3.438700759;0.911788898
134.355;1.806640625;0;-0.022748483;-0.074649432;0.005572538;1.228100846
134.365;1.806640625;0;-0.022054324;0.608173504;0.369875011;1.177576441
140.94;1.806640625;0;0.228161992;7.085056928;50.19803168;39.5605176
143.8;1.806640625;1;0.202765445;-12.14797606;147.5733224;40.90101365
150.57;1.806640625;0;0.132839492;-16.00029973;256.0095915;55.47949895
152.455;1.806640625;0;0.230349837;6.742030295;45.45497249;39.74026877
153.72;1.806640625;0;0.038221692;-2.122668865;4.505723112;1.549230416
156.62;1.806640625;0;0.041376119;0.840167719;0.705881795;1.225497776
159.31;1.806640625;0;0.239265842;6.382443451;40.7355844;39.63414705
163.15;1.806640625;0;0.244505551;7.267265996;52.81315506;44.48642004
163.44;1.806640625;0;0.048154128;0.378922798;0.143582487;1.502394972
1.545;1.801757813;0;0.246223015;6.816884866;46.46991927;45.93359253
4.165;1.801757813;0;0.1234094;13.44880276;180.8702958;36.49466145
4.34;1.801757813;0;0.024320861;-0.120093711;0.014422499;47.42391945
4.475;1.801757813;0;0.02019939;-1.831415689;3.354083425;1.067926835
10.22;1.801757813;0;0.046213383;-0.385740283;0.148795566;0.640267215
14.09;1.801757813;0;0.196194965;7.387998473;54.58252143;31.54644538
17.275;1.801757813;0;-0.015398306;0.17444732;0.030431867;1.568452592
20.07;1.801757813;0;0.1856933;7.597792883;57.72645669;29.36867918
22.23;1.801757813;0;0.139201987;-16.69718185;278.7958817;57.0530158
24.265;1.801757813;0;0.203614061;-13.27814932;176.3092495;44.20127671
34.4;1.801757813;0;0.211146027;-13.32446508;177.5413697;47.43117406
39.585;1.801757813;0;0.185260827;-14.88570118;221.5840995;51.92192199
45.635;1.801757813;0;0.042388543;0.746135988;0.556718913;1.323799404
49.345;1.801757813;0;0.088436255;-14.96957928;224.0883037;51.81490985
55.275;1.801757813;0;0.012977127;1.679679534;2.821323336;1.112122242
58.73;1.801757813;0;0.012223861;-0.399637995;0.159710527;0.261855677
58.83;1.801757813;0;-0.018954801;3.036267837;9.218922381;0.78481564
59.265;1.801757813;0;0.016600462;1.793053411;3.215040536;1.771814536
59.27;1.801757813;0;0.025565729;1.612035583;2.598658722;1.852085467
59.29;1.801757813;0;0.045875951;-0.268495722;0.072089953;1.523597501
66.985;1.801757813;0;-0.005285276;0.163360667;0.026686708;2.010064001
67.02;1.801757813;0;0.036885317;1.534208474;2.353795642;1.3668415
67.035;1.801757813;0;0.051630369;-0.378786145;0.143478943;1.34798457
68.89;1.801757813;1;0.00528912;2.331099558;5.434025151;0.994768603
68.91;1.801757813;0;0.047582984;1.134790366;1.287749174;1.362655824
68.915;1.801757813;1;0.053256935;0.451492497;0.203845475;1.321869441
72.495;1.801757813;0;0.025579001;1.849445216;3.420447605;1.519932129
75.17;1.801757813;0;0.07300027;-10.57020875;111.7293131;85.91532535
77.955;1.801757813;0;0.004365772;-7.059859868;49.84162135;17.84297003
82.03;1.801757813;0;0.098609044;-3.883911514;15.08476865;6.777190569
82.35;1.801757813;0;-0.022279249;0.168372206;0.0283492;14.23437734
83.375;1.801757813;0;-0.013393763;1.771471039;3.138109642;0.978857753
84.19;1.801757813;0;0.111739171;-16.69994673;278.8882208;58.68209887
97.31;1.801757813;0;0.213717332;8.17390521;66.81272638;38.48673719
99.575;1.801757813;0;0.163778541;-16.68618839;278.428883;60.05412783
107.81;1.801757813;0;0.200247235;-13.70160989;187.7341137;45.90958801
110.815;1.801757813;0;0.192857912;-14.56597851;212.16773;47.24152965
114.49;1.801757813;0;0.243364579;-7.397948585;54.72964326;34.77530768
117.235;1.801757813;0;0.137103079;-15.73668446;247.6432379;52.45450766
117.495;1.801757813;0;0.034514019;1.075898991;1.157558639;0.971965084
120.335;1.801757813;0;0.032774347;1.992082383;3.968392219;1.988350898
122.725;1.801757813;1;0.119016328;-2.172725418;4.720735741;6.023755038
122.875;1.801757813;1;0.155777731;-17.58091436;309.0885498;69.56406187
124.925;1.801757813;1;0.037108832;0.271717878;0.073830605;0.577470483
125.745;1.801757813;0;0.030243615;1.751793296;3.068779752;1.53547316
125.755;1.801757813;0;0.045914639;0.868636233;0.754528906;1.505720893
130.13;1.801757813;0;0.19461922;-13.22729495;174.9613317;36.01176976
134.35;1.801757813;1;-0.021543862;-0.240924344;0.05804454;1.475202433
146.9;1.801757813;0;-0.028128874;0.016079106;0.000258538;6.934951487
146.91;1.801757813;0;-0.02712833;0.378646572;0.143373226;2.336080718
147;1.801757813;0;0.015200978;-2.472494528;6.113229192;1.550104952
150.84;1.801757813;0;0.040422578;-0.283493501;0.080368565;1.103038389
153.65;1.801757813;1;-0.022596396;0.529117975;0.279965831;1.153484293
156.585;1.801757813;0;-0.008265538;0.954843746;0.911726579;1.392491145
156.595;1.801757813;0;0.002671928;1.486119394;2.208550854;1.073221248
156.61;1.801757813;0;0.026940163;1.590102081;2.528424629;1.243218821
156.63;1.801757813;0;0.046860446;-0.395714053;0.156589612;1.148146996
157.34;1.801757813;0;0.1825296;-14.89673963;221.9128515;50.38706363
161.245;1.801757813;0;0.233895178;7.07552045;50.06298964;40.24727796
2.46;1.796875;0;0.206980887;-9.893013179;97.87170976;33.15245069
3.17;1.796875;0;0.058220344;0.366406267;0.134253553;10.55391332
11.02;1.796875;0;0.216551266;7.933778286;62.94483788;38.63915691
12.315;1.796875;0;0.042801918;0.86663579;0.751057592;1.294145014
13.095;1.796875;0;0.170604623;-15.34129557;235.3553499;50.89238055
17.295;1.796875;0;-0.001005309;1.688347638;2.850517746;1.049084227
19.29;1.796875;0;0.03659178;0.674937779;0.455541005;2.272291032
27.09;1.796875;0;0.129870472;-15.28445987;233.6147134;56.16208517
44.385;1.796875;0;0.230550559;5.62239853;31.61136523;35.31416063
45.37;1.796875;0;0.200628607;-13.74630945;188.9610234;50.82301047
45.375;1.796875;0;0.131897059;-15.91274866;253.2155699;59.07999519
45.58;1.796875;0;-0.016826087;-0.002289603;5.24E-06;1.596325407
45.595;1.796875;0;-0.014814317;0.638854085;0.408134542;1.279397362
45.605;1.796875;0;-0.006515562;1.396571951;1.950413216;1.128115708
45.61;1.796875;0;0.000467298;1.699244413;2.887431574;1.136678328
45.63;1.796875;0;0.035972955;1.283117516;1.64639056;1.389284582
45.65;1.796875;0;0.04387765;-1.188384314;1.412257277;1.311679213
50.29;1.796875;0;0.164793782;-16.54534187;273.7483377;55.98755697
55.01;1.796875;0;0.252426977;16.90623466;285.8207702;54.21426756
55.295;1.796875;0;0.041156064;0.552545938;0.305307013;1.119681413
56.005;1.796875;0;0.206859398;6.610062217;43.69292251;32.23138861
57.255;1.796875;0;0.034674788;1.292322872;1.670098406;1.569263617
58.3;1.796875;0;0.032455996;1.288144743;1.65931688;1.232419872
58.81;1.796875;0;-0.037219472;-0.182194492;0.033194833;0.272826323
59.26;1.796875;0;0.007430092;1.834074095;3.363827786;1.678091909
59.28;1.796875;0;0.040080922;0.846860949;0.717173467;1.755175628
62.195;1.796875;0;0.018927882;1.235296482;1.525957399;1.827494427
63.695;1.796875;1;0.120543355;-0.148230126;0.02197217;5.307287409
63.71;1.796875;1;0.091133639;-4.790807164;22.95183329;6.647821237
64.82;1.796875;0;0.218344619;-13.27491443;176.2233531;47.84794982
65.775;1.796875;0;0.212008599;-11.21976761;125.8831853;38.71513184
66.995;1.796875;0;-0.001813483;0.963835158;0.928978212;1.340104784
67.005;1.796875;0;0.009921537;1.708067484;2.91749453;1.108310201
67.04;1.796875;0;0.049736438;-1.141295521;1.302555465;1.384194568
68.9;1.796875;0;0.028545257;2.106352287;4.436719957;1.272720054
68.905;1.796875;1;0.039077018;1.701193088;2.894057922;1.358007199
71.605;1.796875;0;0.018213879;-0.728935721;0.531347286;0.687506492
72.51;1.796875;0;0.046369213;0.225292235;0.050756591;1.29740995
75.08;1.796875;0;0.217662926;1.221297197;1.491566844;36.94901407
75.225;1.796875;0;0.149469106;4.498486529;20.23638105;89.94325997
76.705;1.796875;0;0.031439522;11.00603123;121.1327234;75.03593118
77.145;1.796875;0;0.203264267;-16.83656746;283.4700037;66.27923109
77.44;1.796875;0;0.09244369;0.458584005;0.21029929;17.02092804
77.79;1.796875;0;0.016022761;-0.162025185;0.026252161;14.74998355
77.905;1.796875;1;0.042208421;6.786190857;46.05238635;9.933662948
78.08;1.796875;0;0.171529957;-8.847064655;78.270553;27.29701754
78.16;1.796875;0;0.054918151;-0.327714742;0.107396952;47.12298372
78.34;1.796875;0;-0.027184014;0.440284178;0.193850158;0.524196242
79.77;1.796875;0;0.237548617;-8.844872818;78.23177517;35.11402087
81.59;1.796875;0;0.032190434;2.130408017;4.538638317;2.191222066
82.335;1.796875;0;-0.012667508;-1.134853846;1.287893253;18.35907113
82.355;1.796875;0;-0.021437388;0.340316056;0.115815018;13.39555276
82.455;1.796875;0;0.03722346;-2.221305042;4.934196088;1.584100981
85.145;1.796875;0;0.043995718;-15.86148332;251.5866532;56.71056457
86.965;1.796875;0;0.105780369;-0.559732271;0.313300216;4.620514384
90.965;1.796875;0;0.226851121;9.309582112;86.6683191;46.09280845
95.055;1.796875;0;0.248610445;6.839596084;46.78007459;52.20362805
97.585;1.796875;0;0.019391392;1.590022688;2.528172148;1.800013857
98.46;1.796875;0;0.166762075;-15.71560634;246.9802826;53.43811999
99.55;1.796875;1;0.214531784;9.608450481;92.32232065;43.15394466
101.965;1.796875;0;0.001671658;1.291466691;1.667886215;0.800597204
104.1;1.796875;0;0.051434073;0.030473076;0.000928608;1.566582389
106.075;1.796875;0;0.045144733;0.319181611;0.101876901;0.971526468
108.85;1.796875;0;0.177154582;-15.11906098;228.5860049;49.253636
111.085;1.796875;0;0.047775327;0.503687475;0.253701073;1.190496044
112.075;1.796875;0;0.037561095;1.444448446;2.086431314;1.299567579
113.015;1.796875;0;0.042355337;0.419322698;0.175831525;1.179198994
116.28;1.796875;0;0.232603891;7.208433985;51.96152052;39.43067315
121.29;1.796875;0;0.019757795;-5.080813208;25.81466285;7.889687208
124.03;1.796875;0;0.026887274;3.248117361;10.55026639;2.434032046
124.055;1.796875;0;0.065292569;-1.435231604;2.059889757;2.78895764
124.915;1.796875;0;0.02598042;1.353907889;1.833066571;0.555231494
126.305;1.796875;0;0.210194584;-14.61043502;213.4648116;52.58653691
128.375;1.796875;0;0.01795234;1.788425556;3.198465968;1.010309853
128.385;1.796875;1;0.034738044;1.201679083;1.444032619;1.11813942
128.395;1.796875;0;0.044301762;0.13601781;0.018500845;1.070570297
128.405;1.796875;0;0.042616852;-1.060003428;1.123607267;1.102179245
131.39;1.796875;0;0.042260186;1.905643702;3.631477919;2.186368974
131.405;1.796875;0;0.059016221;-0.60145082;0.361743089;1.899322083
134;1.796875;1;0.112541739;-4.214978671;17.7660452;6.519866313
134.325;1.796875;0;-0.016621721;-0.116259251;0.013516213;11.84380683
134.375;1.796875;0;-0.013658096;1.544835854;2.386517815;0.912497478
137.155;1.796875;0;0.188108645;-13.69399015;187.5253663;45.88235222
140.96;1.796875;0;0.196382276;-14.43348551;208.325504;49.57611801
142.145;1.796875;0;0.010472093;1.910007243;3.648127668;0.809327822
146.915;1.796875;0;-0.025235097;0.605745413;0.366927505;1.457812003
150.82;1.796875;0;0.024633169;1.26133776;1.590972945;1.336424814
150.825;1.796875;0;0.030939858;1.016100565;1.032460357;1.352980879
153.66;1.796875;1;-0.015944441;1.13078086;1.278665353;1.153339375
153.675;1.796875;0;0.005994412;1.989579747;3.958427568;1.061414613
156.59;1.796875;0;-0.003491319;1.232649579;1.519424985;1.193123157
156.6;1.796875;0;0.010102525;1.660631522;2.757697053;1.078174983
156.605;1.796875;0;0.018405683;1.70689608;2.913494228;1.162552443
160.305;1.796875;0;0.112619418;-15.5765974;242.6303864;52.12288926
161.52;1.796875;0;0.033219749;1.578877857;2.492855288;1.273252863
2.885;1.791992188;0;-0.018926553;3.883866329;15.08441766;3.275060576
4.075;1.791992188;0;0.009895269;-3.739334466;13.98262225;7.19291061
10.2;1.791992188;0;0.030395424;1.318785026;1.739193946;0.588043511
17.06;1.791992188;0;0.110853406;-17.91326097;320.8849185;67.61462843
17.28;1.791992188;0;-0.014526069;0.490484385;0.240574932;1.526358214
17.33;1.791992188;0;0.046923516;-0.714057551;0.509878186;1.208519934
17.335;1.791992188;0;0.043353228;-1.435993432;2.062077137;1.276712652
19.285;1.791992188;0;0.031246445;1.069066963;1.142904171;2.439437098
23.23;1.791992188;0;0.218622449;7.704064715;59.35261313;37.07647907
25.265;1.791992188;0;0.020335206;-14.51906263;210.8031798;51.87529475
26.45;1.791992188;0;0.040738109;1.050704958;1.10398091;1.250391009
27.095;1.791992188;0;0.053448172;-15.64983496;244.9173344;63.74424287
27.295;1.791992188;0;-0.01859562;1.133158626;1.284048471;2.840790768
27.97;1.791992188;0;0.19639372;7.669430242;58.82016023;32.67038847
34.41;1.791992188;0;0.065451801;-16.23768352;263.662366;63.98909013
35.68;1.791992188;0;0.020589638;1.588367844;2.522912408;1.146990831
40.545;1.791992188;0;0.190422467;-12.84695968;165.0443729;40.80853023
45.655;1.791992188;0;0.037935728;-1.715931665;2.94442148;1.381037037
49.315;1.791992188;0;0.189907906;8.414238917;70.79941655;33.53895191
57.23;1.791992188;0;-0.007284099;1.320724551;1.744313339;1.474031905
57.25;1.791992188;0;0.026197948;1.695367858;2.874272175;1.565145976
58.305;1.791992188;0;0.038896719;0.833542243;0.69479267;1.187409077
58.315;1.791992188;0;0.044457553;-0.320154731;0.102499052;1.057872287
58.79;1.791992188;0;-0.023649373;-0.645846457;0.417117646;0.265251989
59.23;1.791992188;0;-0.028306024;0.597790039;0.35735293;1.957379664
60.965;1.791992188;0;0.210498559;6.879317508;47.32500937;33.19994763
63.12;1.791992188;1;-0.015596644;0.146868215;0.021570273;1.045521097
63.18;1.791992188;1;0.043153493;-1.253850988;1.5721423;1.02410509
63.705;1.791992188;0;0.10951535;-3.676342117;13.51549136;5.895422721
67.045;1.791992188;0;0.04402996;-1.824104861;3.327358546;1.446397445
68.885;1.791992188;1;-0.00545804;2.149432091;4.620058315;0.961023258
73.47;1.791992188;0;0.009601228;0.536842353;0.288199712;0.950878131
74.5;1.791992188;0;0.005969531;2.243469969;5.033157504;1.806586078
74.55;1.791992188;1;0.023116016;-1.987059759;3.948406485;1.948829012
75.16;1.791992188;0;0.117316887;-1.885052551;3.553423121;82.85975167
77.01;1.791992188;0;0.11066092;-5.064400258;25.64814997;28.32192884
78.145;1.791992188;0;0.003870872;5.389003638;29.04136021;46.72371198
80.75;1.791992188;0;-0.023081393;-0.209494313;0.043887867;13.89354017
82.035;1.791992188;0;0.079189486;-4.864386482;23.66225585;7.564541257
82.175;1.791992188;0;0.117859302;-17.7882373;316.4213862;67.98015733
82.33;1.791992188;0;-0.004643079;-1.604885605;2.575657804;25.31154092
82.36;1.791992188;0;-0.019735808;0.354576837;0.125724733;11.18171928
83.385;1.791992188;0;0.00614885;2.302992029;5.303772284;1.078785558
83.42;1.791992188;0;0.042935718;-1.617052335;2.614858255;1.28124006
85.11;1.791992188;0;0.191973145;9.711771317;94.31850211;28.18299045
88.365;1.791992188;0;0.025887828;1.032492467;1.066040693;0.790699411
89.91;1.791992188;0;0.082494035;3.022303041;9.134315673;3.72414886
89.935;1.791992188;0;0.079149495;-4.2175795;17.78797684;4.847362019
95.32;1.791992188;0;-0.000449298;1.777089023;3.158045395;1.540372024
96.46;1.791992188;0;0.041440374;0.28573089;0.081642142;1.023187868
102;1.791992188;0;0.040309165;-0.201540533;0.040618586;0.825762837
104.785;1.791992188;1;0.223471885;6.792808762;46.14225087;38.45841872
105.06;1.791992188;0;0.040307219;1.442680256;2.08132632;1.310959346
111.08;1.791992188;0;0.042046484;1.145768738;1.312786001;1.234636937
114.475;1.791992188;0;0.199438572;7.866738346;61.88557221;33.47084248
121.27;1.791992188;0;0.067203024;0.269099433;0.072414505;6.373807998
122.215;1.791992188;0;-0.005630414;2.752559473;7.576583654;1.875130437
125.73;1.791992188;0;0.001086239;1.883081347;3.545995359;1.293134142
125.75;1.791992188;0;0.039002581;1.382411599;1.911061829;1.560040707
127.985;1.791992188;0;0.064043469;-2.811061354;7.902065936;7.061832074
128.1;1.791992188;0;0.185000571;8.408234801;70.69841247;28.52457063
128.355;1.791992188;0;-0.014633422;1.303982488;1.70037033;0.91299344
131.385;1.791992188;0;0.030004037;2.451229697;6.008527029;2.118459439
133.445;1.791992188;1;-0.001695745;0.101127775;0.010226827;0.504089258
133.995;1.791992188;0;0.124797431;-2.4511383;6.008078967;5.937785036
134.145;1.791992188;1;0.126527459;-17.48971705;305.8902023;70.10912313
135.405;1.791992188;0;0.025531039;1.703306339;2.901252483;1.699727953
137.425;1.791992188;0;0.034506307;0.257927597;0.066526645;0.597451745
141.895;1.791992188;0;0.155935336;-14.76090611;217.8843491;48.30796624
142.165;1.791992188;0;0.04286126;0.515653347;0.265898374;0.933213548
146.705;1.791992188;0;0.151422305;-15.58516585;242.8973944;51.77338285
146.89;1.791992188;0;-0.025923741;-0.301377507;0.090828402;12.42320113
146.995;1.791992188;0;0.026370411;-2.233886708;4.990249825;1.391435258
147.52;1.791992188;0;0.110088829;-0.417612577;0.174400265;4.850487797
147.67;1.791992188;0;0.18223011;-13.97910475;195.4153697;44.01557882
150.805;1.791992188;0;0.003652733;1.375802523;1.892832581;1.39327503
153.41;1.791992188;0;0.211838936;6.983066871;48.76322293;34.47057719
153.67;1.791992188;0;-0.002912057;1.781293837;3.173007733;1.02672041
153.715;1.791992188;1;0.046180795;-1.591820671;2.533893047;1.418700676
155.37;1.791992188;0;0.214127461;6.476925668;41.95056611;33.38297511
158.6;1.791992188;0;0.035524305;0.593388541;0.352109961;0.69871146
163.42;1.791992188;0;0.016449892;1.964521347;3.859344124;1.538694547
0.045;1.787109375;0;0.014681178;0.063818694;0.004072826;0.031020945
7.895;1.787109375;0;0.226451788;7.750746868;60.07407701;40.41903842
12.32;1.787109375;0;0.047135097;0.246068968;0.060549937;1.260079526
13.355;1.787109375;0;0.042446345;1.216720507;1.480408792;1.278619523
16.91;1.787109375;0;0.10794037;-2.25694826;5.093815448;4.870564827
17.325;1.787109375;0;0.046647032;0.055296628;0.003057717;1.215107643
19.24;1.787109375;0;-0.027423018;0.758906073;0.575938427;2.757997857
19.25;1.787109375;0;-0.018900317;1.136564596;1.29177908;2.526437249
19.295;1.787109375;0;0.039966469;0.201836387;0.040737927;2.036911161
19.3;1.787109375;0;0.040975651;-0.316086351;0.099910581;1.831369369
21.15;1.787109375;0;0.134042533;-15.74555291;247.9224364;52.46957413
21.37;1.787109375;0;-0.01070944;0.515737699;0.265985374;1.64126195
26.44;1.787109375;0;0.023130502;1.947875296;3.794218168;1.147498674
26.46;1.787109375;0;0.048145944;-0.223318975;0.049871365;1.161836994
30.08;1.787109375;0;0.074451361;-18.17630842;330.3781878;66.08850627
31.19;1.787109375;0;0.086255487;-15.77435174;248.8301728;53.75826373
32.54;1.787109375;0;0.032163886;1.438871216;2.070350376;1.379850042
41.505;1.787109375;0;0.178682241;-14.42246287;208.0074353;47.86174233
45.575;1.787109375;0;-0.01695941;0.026664654;0.000711004;2.51199614
45.59;1.787109375;0;-0.016380052;0.313147071;0.098061088;1.291890963
46.395;1.787109375;0;0.165617517;-15.27715909;233.3915899;48.85598013
54.05;1.787109375;0;0.192213095;7.75524041;60.14375382;33.05709386
55.28;1.787109375;0;0.021375525;1.587614851;2.520520914;1.152057027
55.285;1.787109375;0;0.029313599;1.360556811;1.851114836;1.213395249
57.265;1.787109375;0;0.044667466;0.004063495;1.65E-05;1.376665793
58.295;1.787109375;0;0.024459653;1.599268477;2.557659663;1.204786812
58.745;1.787109375;0;0.003268125;-0.857958524;0.73609283;0.269006843
58.75;1.787109375;0;-0.001021668;-0.855990374;0.73271952;0.265972727
58.795;1.787109375;0;-0.026878606;-0.747879585;0.559323874;0.274340303
58.815;1.787109375;0;-0.038130445;0.436805335;0.190798901;0.27384462
59.295;1.787109375;0;0.044533472;-0.843610831;0.711679234;1.502017781
62.875;1.787109375;0;0.186586627;8.684035898;75.41247948;34.57354648
62.905;1.787109375;1;0.080540915;-15.46151458;239.0584331;53.97632427
63.85;1.787109375;0;0.144885444;-17.7933679;316.6039414;69.35124173
67;1.787109375;0;0.003005693;1.383168854;1.91315608;1.131097991
68.625;1.787109375;0;0.236045393;8.929191745;79.73046521;47.71018868
68.925;1.787109375;0;0.05403795;-1.048037693;1.098383007;1.320060961
71.315;1.787109375;0;0.196004541;8.580228217;73.62031626;34.16005258
72.45;1.787109375;0;-0.020482284;-0.326367493;0.106515741;1.94075553
72.515;1.787109375;0;0.047495674;-0.447846319;0.200566325;1.281166705
73.235;1.787109375;0;0.116972463;-15.39734581;237.0782579;55.38223271
73.485;1.787109375;0;0.018087657;0.567647065;0.32222319;0.794572207
75.085;1.787109375;0;0.223769412;-4.022511164;16.18059607;37.48836727
77.875;1.787109375;0;-0.085077102;0.338496682;0.114580004;6.866754817
77.9;1.787109375;0;0.007331075;6.975469198;48.65717053;8.494333484
78.45;1.787109375;1;-0.016906622;1.753695898;3.075449302;2.780850431
80.795;1.787109375;0;0.000970577;1.720646225;2.960623432;1.270053825
80.845;1.787109375;0;0.036232188;-1.804164119;3.255008167;0.945442423
81.575;1.787109375;0;0.003501738;1.690983127;2.859423935;2.192997122
81.585;1.787109375;0;0.021655903;2.106906174;4.439053628;2.085955571
82.015;1.787109375;0;0.10423576;1.613514707;2.603429708;6.134411798
83.345;1.787109375;0;-0.018381162;-0.564340962;0.318480721;2.33004053
83.355;1.787109375;0;-0.023500298;-0.195610144;0.038263328;1.543234909
84.05;1.787109375;0;0.064117237;-4.213205083;17.75109707;5.289119919
87.115;1.787109375;0;0.178533631;-14.74827268;217.5115471;50.96528332
90.325;1.787109375;0;0.003125799;1.43447339;2.057713906;0.890578657
91.225;1.787109375;0;0.004235888;1.287964588;1.65885278;1.000808895
91.785;1.787109375;0;0.111741309;-2.125149671;4.516261125;5.369058405
94.05;1.787109375;0;0.211612353;-11.70917008;137.104664;39.13136713
97.59;1.787109375;0;0.027341505;1.418951225;2.013422579;1.80286998
99.58;1.787109375;0;0.080347599;-17.66360669;312.0030015;70.25727427
103.06;1.787109375;0;0.054888941;-0.791740836;0.626853552;1.378500731
105.055;1.787109375;0;0.03046223;1.968997832;3.876952461;1.241581802
105.075;1.787109375;0;0.05203454;-0.588690331;0.346556306;1.344211756
105.08;1.787109375;0;0.049091089;-1.215464642;1.477354295;1.393456899
106.055;1.787109375;0;0.017133908;1.755698764;3.082478151;0.965224254
108.055;1.787109375;0;0.00635528;1.689738497;2.855216189;1.401892117
108.06;1.787109375;0;0.014803972;1.726727267;2.981587056;1.454635405
111.075;1.787109375;0;0.033866194;1.636057945;2.676685598;1.22548183
111.815;1.787109375;0;0.180881828;-15.33812625;235.2581168;50.74999089
112.07;1.787109375;0;0.028678902;1.776438695;3.155734439;1.244025636
118.19;1.787109375;1;0.174197403;-16.19173023;262.1721277;55.96063547
120.33;1.787109375;0;0.021553275;2.244214396;5.036498254;1.870860664
122.25;1.787109375;0;0.048241366;-0.869358821;0.755784759;2.09574062
124.92;1.787109375;0;0.03274996;0.871774464;0.759990716;0.57623976
125.765;1.787109375;0;0.051510099;-0.4180774;0.174788712;1.367335008
127.165;1.787109375;0;0.202914449;-14.92776718;222.8382331;50.78485771
127.975;1.787109375;0;0.073757887;-0.263220257;0.069284904;8.309633486
131.11;1.787109375;0;0.226903957;8.354180996;69.79234012;41.3850681
133.45;1.787109375;1;-0.001190106;0.283070888;0.080129128;0.419893556
134.33;1.787109375;0;-0.017203017;-0.124443808;0.015486261;9.803415826
134.335;1.787109375;1;-0.017825236;-0.188514146;0.035537583;6.981211566
135.155;1.787109375;0;0.144472017;-17.26420021;298.0526088;54.72487464
135.41;1.787109375;0;0.034047571;1.321665683;1.746800176;1.73212999
135.425;1.787109375;0;0.046030038;-0.343170627;0.117766079;1.526551279
137.385;1.787109375;0;-0.00546905;0.742990374;0.552034697;1.0068403
137.39;1.787109375;0;-0.001754098;0.916299895;0.839605497;0.819868415
144.765;1.787109375;1;0.150256629;-16.35160732;267.3750621;55.67735939
146.005;1.787109375;0;0.010971699;1.640816968;2.692280323;0.985415728
150.8;1.787109375;0;-0.002699313;1.27040918;1.613939486;1.617656328
151.51;1.787109375;0;0.15666215;-16.80194949;282.3055066;63.01778716
153.64;1.787109375;0;-0.025401966;0.224362527;0.050338544;1.90417292
153.645;1.787109375;0;-0.024280154;0.336751649;0.113401673;1.280870545
156.615;1.787109375;0;0.034890674;1.297088956;1.682439761;1.26400536
158.58;1.787109375;0;0.007131628;1.589036108;2.525035754;0.629882736
158.595;1.787109375;1;0.030145933;1.075674458;1.157075539;0.692237442
161.515;1.787109375;0;0.023890413;1.865867311;3.481460822;1.193028798
163.415;1.787109375;0;0.006918928;1.906192882;3.633571304;1.422025617
4.02;1.782226563;0;0.008148237;4.926684827;24.27222338;2.821681746
4.32;1.782226563;0;0.001935115;1.711534486;2.929350298;54.05860176
8.94;1.782226563;0;0.105124988;-15.25420332;232.690719;49.66007285
10.175;1.782226563;0;-0.005691593;1.265296208;1.600974493;0.235624049
10.21;1.782226563;0;0.042181302;0.646126171;0.417479029;0.637224857
10.215;1.782226563;0;0.045411933;0.160289876;0.025692844;0.637049508
14.115;1.782226563;0;0.138998759;-14.26220089;203.4103742;43.93585444
15.07;1.782226563;0;0.18719726;7.866727121;61.8853956;29.33942245
15.355;1.782226563;0;0.046917353;0.909191234;0.8266287;1.530469723
17.29;1.782226563;0;-0.007602659;1.31946988;1.741000764;1.15197889
19.235;1.782226563;0;-0.030303968;0.57619004;0.331994963;3.698408479
19.245;1.782226563;0;-0.023628488;0.945634121;0.89422389;2.497902369
26.455;1.782226563;0;0.045991634;0.430861926;0.185641999;1.2127194
26.47;1.782226563;0;0.042795182;-1.380498167;1.90577519;1.19753872
27.06;1.782226563;0;0.148754091;11.57950542;134.0849457;45.09480879
27.995;1.782226563;0;0.150756109;-13.80615167;190.6098238;43.81971998
28;1.782226563;0;0.081725351;-14.74702215;217.4746622;50.66486447
29.925;1.782226563;0;0.107216199;-1.054708601;1.112410233;4.56536326
40.55;1.782226563;0;0.126187668;-15.21065139;231.3639157;48.45606554
45.56;1.782226563;0;-0.021196439;0.408347203;0.166747438;8.831846933
52.395;1.782226563;0;0.021608332;1.58517922;2.51279316;0.926217191
54.08;1.782226563;0;0.069601584;-15.0800908;227.4091385;52.25963073
55.29;1.782226563;0;0.036116383;1.007936156;1.015935295;1.206365791
56.03;1.782226563;0;0.120710117;-15.12545511;228.7793922;47.2699438
57.26;1.782226563;0;0.041136402;0.706212874;0.498736624;1.484649948
57.27;1.782226563;0;0.044687784;-0.725625489;0.526532351;1.324939041
58.29;1.782226563;0;0.015738469;1.74423678;3.042361944;1.119609447
58.735;1.782226563;0;0.010225671;-0.615885864;0.379315397;0.264519402
58.9;1.782226563;0;-0.009881862;-2.725765643;7.429798338;5.663699012
63.09;1.782226563;0;-0.015669695;0.304637632;0.092804087;8.771950326
63.105;1.782226563;0;-0.013471204;-0.151240806;0.022873782;2.102466701
63.125;1.782226563;0;-0.014862303;0.496479993;0.246492384;1.007198791
66.735;1.782226563;0;0.210403461;8.455084955;71.4884616;38.109372
67.05;1.782226563;0;0.034909436;-2.352281805;5.53322969;1.524209671
68.895;1.782226563;0;0.016944618;2.320127751;5.382992781;1.126537448
69.575;1.782226563;0;0.200562454;-11.33804116;128.5511773;36.01906717
72.5;1.782226563;1;0.034826227;1.434503299;2.057799714;1.470193029
73.465;1.782226563;0;0.007071384;0.505968881;0.256004508;1.189302756
76.675;1.782226563;0;-0.147703227;-4.197690129;17.62060242;63.66791397
78.465;1.782226563;0;0.006169859;0.927332439;0.859945452;2.795506189
78.47;1.782226563;0;0.010806521;0.587537235;0.345200003;2.730862299
80.8;1.782226563;0;0.009573808;1.790230821;3.204926393;1.161231385
80.82;1.782226563;0;0.041355552;0.859006775;0.73789264;0.781522122
81.595;1.782226563;0;0.042842474;1.963376342;3.85484666;2.319419677
81.615;1.782226563;0;0.066768132;-0.61881969;0.382937809;2.216889989
82.02;1.782226563;0;0.112303334;-0.40823432;0.16665526;6.114027192
82.31;1.782226563;0;0.031072108;-1.35595679;1.838618815;58.42558955
82.34;1.782226563;0;-0.018341777;-0.622860182;0.387954806;14.9982939
82.985;1.782226563;0;0.107504102;0.637196368;0.406019212;4.833618841
82.995;1.782226563;0;0.104584215;-2.882511047;8.308869934;5.144997026
83.38;1.782226563;0;-0.004536408;2.137051524;4.566989216;0.955911489
84.03;1.782226563;0;0.094928911;0.718789488;0.516658328;4.1160751
87.37;1.782226563;0;0.024666738;0.570800692;0.32581343;2.709765356
88.31;1.782226563;0;-0.011280097;-0.072454295;0.005249625;2.706355941
88.33;1.782226563;0;-0.011372458;0.398814789;0.159053236;1.492998924
88.35;1.782226563;0;0.005245032;1.398573366;1.95600746;0.695308008
90.845;1.782226563;0;0.110247954;-3.158295038;9.974827547;5.81758973
91.265;1.782226563;0;0.039320704;-0.782548665;0.612382412;0.887630735
91.93;1.782226563;0;0.177764342;-16.22273677;263.1771883;59.03799941
94.055;1.782226563;0;0.153066502;-14.66943608;215.1923549;46.21304344
96.465;1.782226563;0;0.042869029;-0.29759788;0.088564498;1.002362111
97.335;1.782226563;0;0.137947491;-16.32528861;266.5150483;55.44851543
97.56;1.782226563;0;-0.015251782;1.035215859;1.071671874;2.245915761
97.595;1.782226563;0;0.034436261;1.120967388;1.256567884;1.703112757
99.84;1.782226563;1;0.035255824;1.030070846;1.061045948;1.349395583
99.845;1.782226563;0;0.040406178;0.558648548;0.3120882;1.25060752
101.97;1.782226563;0;0.008128992;1.411650721;1.992757757;0.790952801
101.985;1.782226563;0;0.029122578;1.128377638;1.273236094;0.918462422
102.78;1.782226563;0;0.186700732;-15.16464039;229.9663181;51.11010389
103.055;1.782226563;0;0.054765526;0.024682817;0.000609241;1.383467026
106.045;1.782226563;0;0.000603021;1.576271698;2.484632466;0.870183098
106.06;1.782226563;0;0.025912401;1.626530573;2.645601703;1.049690506
106.065;1.782226563;0;0.034045054;1.333128542;1.777231708;1.072451176
106.08;1.782226563;0;0.046740641;-0.321114761;0.10311469;0.936446789
109.795;1.782226563;1;0.210050818;8.698112392;75.65715918;38.55724954
109.815;1.782226563;0;0.22100523;-12.54816747;157.4565068;45.23569511
111.09;1.782226563;0;0.050293765;-0.223294024;0.049860221;1.149019057
111.095;1.782226563;0;0.049177295;-0.953809683;0.909752911;1.161259331
117.475;1.782226563;0;0.000532245;1.717202796;2.948785442;0.754980281
124.035;1.782226563;0;0.043127861;2.585706597;6.685878603;2.655783775
124.87;1.782226563;0;-0.012059082;-0.479804041;0.230211918;1.717437798
124.875;1.782226563;0;-0.014458103;-0.222474953;0.049495105;1.424540783
124.88;1.782226563;0;-0.015570477;0.14668466;0.02151639;1.410227277
128.345;1.782226563;0;-0.022887897;0.665798586;0.443287757;0.920481561
128.36;1.782226563;0;-0.00811351;1.581707763;2.501799449;0.859140888
128.38;1.782226563;0;0.026894468;1.568715167;2.460867274;1.090346891
133.49;1.782226563;0;0.028447576;-0.064089473;0.004107461;0.409714081
134.345;1.782226563;1;-0.020075813;-0.293609701;0.086206656;2.395235011
135.415;1.782226563;0;0.040655899;0.823286048;0.677799916;1.681917848
137.005;1.782226563;0;0.107401593;0.142515045;0.020310538;4.519080815
140.01;1.782226563;0;-0.243516324;-17.55991145;308.3504903;48.24145672
141.87;1.782226563;0;0.195384297;8.709700239;75.85887825;35.70481205
141.9;1.782226563;0;0.082130806;-15.81633592;250.1564818;56.42297291
146.895;1.782226563;0;-0.027430629;-0.13964914;0.019501882;9.974351023
147.005;1.782226563;0;0.002838505;-2.547476949;6.489638805;1.704033819
147.515;1.782226563;0;0.10245035;1.527695722;2.33385422;4.851438558
147.53;1.782226563;0;0.096445635;-3.883674576;15.08292822;5.487038087
151.365;1.782226563;0;0.105386243;-3.111104008;9.67896815;5.448451458
152.475;1.782226563;0;0.192283393;-14.42413181;208.0555784;50.22239051
153.43;1.782226563;0;0.191922584;-13.14231806;172.7205239;42.16578401
156.58;1.782226563;0;-0.011780972;0.703086791;0.494331035;1.55195154
156.64;1.782226563;0;0.039643719;-1.628277056;2.65128617;1.264315265
160.54;1.782226563;0;-0.000281501;1.263010142;1.595194618;0.756188847
160.555;1.782226563;0;0.020942364;1.458705185;2.127820816;0.870657774
160.56;1.782226563;0;0.028235889;1.21965598;1.487560711;0.910192422
160.565;1.782226563;0;0.034334169;0.819809469;0.672087566;0.903632454
161.54;1.782226563;0;0.049786155;-0.65414283;0.427902842;1.22313638
163.435;1.782226563;0;0.04306312;1.018201633;1.036734565;1.601306508
0.96;1.77734375;0;0.038216125;0.544013119;0.295950274;0.915837566
4.26;1.77734375;0;0.041360181;2.76555309;7.648283894;85.58670768
4.33;1.77734375;0;0.017569377;0.945804555;0.894546256;53.20852852
8.165;1.77734375;0;0.016663071;1.730853453;2.995853675;0.933857032
10.18;1.77734375;0;0.000634888;1.413112496;1.996886926;0.301587309
10.19;1.77734375;0;0.015261954;1.542759738;2.380107609;0.456701587
10.195;1.77734375;0;0.022975753;1.483934197;2.202060701;0.530088354
12.06;1.77734375;0;0.141472354;-14.74602071;217.4451268;46.96837242
13.335;1.77734375;0;0.000453324;2.216412189;4.912482994;0.911419663
13.36;1.77734375;0;0.048529948;0.529053154;0.27989724;1.254275652
16.915;1.77734375;0;0.096655629;-3.722605012;13.85778807;5.316850259
17.265;1.77734375;0;-0.015071553;-0.054175094;0.002934941;1.964303323
17.27;1.77734375;0;-0.015342428;-0.011175489;0.000124892;1.587873419
19.225;1.77734375;0;-0.033067647;0.167028544;0.027898534;7.933663897
19.23;1.77734375;0;-0.032232504;0.385707177;0.148770027;5.513138636
21.39;1.77734375;0;0.004934417;1.335769562;1.784280323;1.238991859
26.195;1.77734375;0;0.092987892;-15.65464603;245.0679423;54.56440104
26.43;1.77734375;0;0.001744263;2.137702729;4.569772958;1.01924303
27.32;1.77734375;0;0.005999854;0.710168545;0.504339362;1.840895721
27.99;1.77734375;0;0.206160193;-11.08081662;122.7844969;37.58524373
29.93;1.77734375;0;0.101942656;-2.786762855;7.76604721;4.819516704
32.52;1.77734375;0;0.0028661;1.189030314;1.413793088;1.213327143
33.4;1.77734375;0;0.126662413;-14.81748601;219.5578917;46.29923374
38.57;1.77734375;0;0.183623315;-15.0288072;225.865046;51.29595167
43.66;1.77734375;1;0.024726656;1.695927897;2.876171432;1.832572203
45.555;1.77734375;0;-0.023297218;0.420155789;0.176530887;10.30472045
45.585;1.77734375;0;-0.016837535;0.091496489;0.008371608;1.308660704
49.34;1.77734375;0;0.15760688;-13.83412492;191.3830124;44.5725882
51.51;1.77734375;0;0.045836149;0.095116486;0.009047146;1.241625006
53.09;1.77734375;0;0.216079526;7.93406345;62.94936283;37.12665741
55.255;1.77734375;0;-0.013980983;0.992239681;0.984539584;2.169706906
57.215;1.77734375;0;-0.017064746;0.375559582;0.141044999;1.747591728
57.235;1.77734375;0;-0.000680476;1.643666468;2.701639457;1.360247188
58.74;1.77734375;0;0.007146242;-0.775623443;0.601591726;0.267795523
58.755;1.77734375;1;-0.00530162;-0.779769362;0.608040259;0.258767562
58.765;1.77734375;1;-0.012478203;-0.520885175;0.271321366;0.243499112
58.77;1.77734375;0;-0.015082629;-0.416188226;0.17321264;0.241604494
63.115;1.77734375;0;-0.015155368;-0.088255294;0.007788997;1.051885041
63.19;1.77734375;0;0.027785964;-2.22257164;4.939824697;1.236287311
63.195;1.77734375;0;0.016673106;-2.426581103;5.888295848;1.358982869
70.435;1.77734375;0;0.223390146;-11.07906643;122.745713;40.47088097
72.095;1.77734375;0;0.117969;-4.790447405;22.94838634;8.702630689
72.105;1.77734375;0;0.063589651;-6.564862784;43.09742337;11.37321119
72.43;1.77734375;0;-0.016580133;0.02283107;0.000521258;10.30448754
72.47;1.77734375;0;-0.018459906;1.13200087;1.281425969;1.379733557
73.46;1.77734375;0;0.004578783;0.498520126;0.248522316;1.454548729
73.48;1.77734375;0;0.015143991;0.58873317;0.346606746;0.784764169
73.495;1.77734375;0;0.023390752;0.356233746;0.126902482;0.743364286
74.26;1.77734375;0;0.188770666;-12.36445906;152.8798478;37.28778385
74.495;1.77734375;0;-0.004855846;2.165075269;4.68755092;1.891948858
74.505;1.77734375;0;0.017186881;2.131571238;4.543595944;1.82197696
74.515;1.77734375;0;0.036983947;1.3570769;1.841657712;1.963778962
74.52;1.77734375;0;0.043769332;0.766263321;0.587159477;1.939276702
77.43;1.77734375;0;0.06468658;3.458980639;11.96454706;18.22364398
77.88;1.77734375;1;-0.083384619;2.194902591;4.817597382;5.671819017
77.91;1.77734375;0;0.076139375;5.928275528;35.14445074;10.81919288
78.055;1.77734375;0;0.10701662;8.978391103;80.61150679;24.14081408
78.475;1.77734375;0;0.013744208;0.317243648;0.100643532;2.674942011
78.485;1.77734375;0;0.016070168;0.082413563;0.006791995;2.644175801
80.77;1.77734375;0;-0.023793841;0.41578746;0.172879212;3.255512489
81.345;1.77734375;0;0.179697448;-16.92888957;286.587302;62.96890779
81.565;1.77734375;0;-0.009606699;1.196797402;1.432324023;2.300521705
81.605;1.77734375;0;0.060575041;0.996813864;0.99363788;2.342495841
82.345;1.77734375;0;-0.021456078;-0.164634272;0.027104444;14.24277304
82.99;1.77734375;0;0.110690084;-1.221173747;1.49126532;4.877038706
83.365;1.77734375;0;-0.023404123;0.727815545;0.529715467;1.398659333
86.09;1.77734375;0;0.230207423;9.354031885;87.49791251;46.03137728
86.39;1.77734375;0;0.045162477;-0.477595568;0.228097527;1.030506927
87.09;1.77734375;0;0.188957226;10.16541523;103.3356668;39.00105818
88.355;1.77734375;0;0.012237899;1.426012126;2.033510584;0.750690082
90.33;1.77734375;0;0.010298165;1.36944378;1.875376267;0.923828422
91.23;1.77734375;0;0.010675711;1.338561202;1.791746091;0.89427444
92.955;1.77734375;0;0.16603656;-15.22149806;231.6940032;49.88996326
95.3;1.77734375;0;-0.027761901;0.978222382;0.956919029;1.581404254
95.325;1.77734375;0;0.008436147;1.735170159;3.010815481;1.639610462
95.345;1.77734375;0;0.035859547;0.460355258;0.211926964;1.575574318
97.565;1.77734375;0;-0.010075703;1.244126889;1.547851717;1.956209421
97.58;1.77734375;1;0.011205349;1.637208547;2.680451825;1.71935177
98.72;1.77734375;0;0.043274456;0.945888779;0.894705582;1.688021391
100.94;1.77734375;0;0.049746744;-0.867003651;0.75169533;1.420164212
101.975;1.77734375;0;0.015187246;1.438730548;2.069945589;0.850505144
101.99;1.77734375;0;0.034764466;0.781737321;0.611113239;0.887682493
103.035;1.77734375;0;0.021959744;2.279616932;5.196653356;1.387423725
104.08;1.77734375;0;0.025159813;1.848858252;3.418276837;1.629597979
106.035;1.77734375;0;-0.011319005;1.049914842;1.102321175;1.251956496
106.07;1.77734375;0;0.040710697;0.886807115;0.786426859;1.032950632
107.08;1.77734375;0;0.042848269;0.49629972;0.246313412;1.172944264
108.855;1.77734375;0;0.101559277;-16.78702925;281.804351;58.54151014
109.115;1.77734375;0;0.034992147;1.499582529;2.248747761;1.108475118
111.035;1.77734375;0;-0.021198196;0.422418418;0.17843732;1.590897275
111.055;1.77734375;0;-0.00394118;1.682028081;2.829218464;1.032992622
111.07;1.77734375;0;0.024204686;1.932301678;3.733789777;1.142100278
112.08;1.77734375;0;0.044783338;0.942151962;0.887650319;1.287941069
113;1.77734375;0;0.021565298;1.749615951;3.061155975;1.192336056
113.005;1.77734375;0;0.030313378;1.43274998;2.052772504;1.252694431
114.5;1.77734375;0;0.147962025;-14.44981185;208.7970626;46.19276125
114.505;1.77734375;0;0.075712965;-15.3272263;234.9238662;53.70202145
116.535;1.77734375;0;0.000818471;1.181348605;1.395584526;1.636398815
116.55;1.77734375;0;0.019654935;1.254802342;1.574528918;1.379131237
116.56;1.77734375;0;0.031391216;0.817627868;0.668515331;1.407035978
117.48;1.77734375;0;0.009118259;1.823261903;3.324283965;0.801907758
118.435;1.77734375;0;0.008687277;1.598543376;2.555340925;1.341970709
120.35;1.77734375;0;0.055387281;0.288392024;0.08316996;2.002275957
120.355;1.77734375;0;0.056829241;-0.435489833;0.189651395;2.006883043
121.06;1.77734375;0;0.165485848;-15.70939755;246.7851714;53.52661956
121.265;1.77734375;0;0.056339434;2.172718137;4.720704103;7.280603458
124.525;1.77734375;0;0.089624839;-3.278686803;10.74978715;4.258154812
124.935;1.77734375;0;0.036586024;-0.995668032;0.99135483;0.594923511
124.945;1.77734375;0;0.024035257;-1.875803697;3.518639509;0.776279057
125.725;1.77734375;0;-0.007218085;1.660864774;2.758471796;1.380964166
125.77;1.77734375;0;0.049419712;-1.075445908;1.156583901;1.385439145
128.35;1.77734375;0;-0.019558904;0.985096359;0.970414837;0.943579971
131.395;1.77734375;0;0.051788404;1.15694171;1.338514121;2.114372161
131.4;1.77734375;0;0.057573113;0.288621671;0.083302469;1.983282501
131.41;1.77734375;0;0.056008967;-1.416096465;2.005329199;1.928468082
133.47;1.77734375;0;0.011375754;1.070144308;1.14520884;0.40751807
134.31;1.77734375;0;-0.010483396;-0.649558992;0.421926883;13.3689355
135.01;1.77734375;0;0.016564537;0.476883906;0.22741826;0.142585561
135.39;1.77734375;0;-0.00387443;1.931611286;3.731122159;1.527373518
135.395;1.77734375;0;0.005783627;2.01175627;4.047163289;1.519168304
135.4;1.77734375;0;0.015842408;1.937726172;3.754782716;1.603083142
135.42;1.77734375;0;0.044772329;0.251541663;0.063273208;1.591907007
137.16;1.77734375;0;0.119638694;-15.76580212;248.5605165;54.07944387
137.4;1.77734375;0;0.008215715;1.194840336;1.427643428;0.570326556
139.07;1.77734375;1;0.210159648;-12.56638861;157.9141226;42.36979755
139.865;1.77734375;0;0.107491713;-3.383799217;11.45009714;5.689584515
142.125;1.77734375;0;-0.015436869;0.744662358;0.554522028;0.853436417
144.065;1.77734375;0;0.038091475;0.802194801;0.643516498;1.129770654
145.02;1.77734375;0;0.052975536;1.828766737;3.344387778;1.048109178
146.885;1.77734375;0;-0.023500793;-0.4845896;0.23482708;13.64239725
150.79;1.77734375;0;-0.013339658;0.992485167;0.985026807;1.976414959
150.815;1.77734375;0;0.017660744;1.394484856;1.944588015;1.285478288
153.655;1.77734375;1;-0.019950806;0.80127293;0.642038308;1.174857396
154.385;1.77734375;0;0.238257017;6.591794961;43.4517608;39.93607069
158.59;1.77734375;0;0.023044989;1.420188678;2.016935881;0.654840641
158.605;1.77734375;0;0.038491248;0.02715524;0.000737407;0.682131054
160.58;1.77734375;0;0.038344109;-0.917535755;0.841871862;0.877978928
163.425;1.77734375;1;0.026272499;1.839337825;3.383163636;1.64461806
0.05;1.772460938;0;0.015000272;-0.16700673;0.027891248;0.031950654
0.06;1.772460938;0;0.012177606;-0.596433993;0.355733508;0.049076015
0.085;1.772460938;0;-0.005917023;-0.52756484;0.278324661;0.134740369
0.965;1.772460938;0;0.04093619;-0.162213193;0.02631312;0.843972811
4.08;1.772460938;0;-0.008801403;-2.898606989;8.401922476;7.457985382
4.285;1.772460938;0;0.016723645;-3.116456144;9.712298896;84.99803259
4.485;1.772460938;0;0.001090623;-1.96264074;3.851958674;1.293101586
4.91;1.772460938;0;0.114010054;-1.609046907;2.589031948;5.593020456
8.18;1.772460938;0;0.038973698;0.702964194;0.494158658;1.010736337
11.045;1.772460938;0;0.137887425;-16.21793244;263.0213326;55.70372222
12.035;1.772460938;0;0.195345159;8.011118708;64.17802295;33.95689582
15.36;1.772460938;0;0.051463309;0.187560075;0.035178782;1.499587088
16.335;1.772460938;0;0.02748193;1.406470131;1.978158229;1.015963414
17.25;1.772460938;0;-0.017831537;0.345639784;0.11946686;8.941419845
17.285;1.772460938;0;-0.012073647;0.894197667;0.799589468;1.355252721
17.305;1.772460938;0;0.017060979;1.968978476;3.876876237;1.209664106
21.41;1.772460938;0;0.033570555;1.066477087;1.137373377;1.366578468
22.49;1.772460938;0;0.027541422;1.134959153;1.28813228;0.967282929
25.23;1.772460938;0;0.164029189;8.970482842;80.46956242;29.27565804
26.435;1.772460938;0;0.012432776;2.139545053;4.577653034;1.052508415
26.465;1.772460938;0;0.047029349;-0.846833315;0.717126663;1.148187821
27.325;1.772460938;0;0.009550696;0.65648772;0.430976126;1.597754353
31.185;1.772460938;0;0.158753367;-14.4995761;210.2377071;45.76484504
31.445;1.772460938;0;0.037430124;0.711016655;0.505544684;1.22805755
32.525;1.772460938;0;0.008811251;1.44474029;2.087274506;1.201883195
32.545;1.772460938;0;0.039358242;1.057438895;1.118177017;1.335650774
32.565;1.772460938;0;0.041476774;-1.638097135;2.683362222;1.336004545
33.375;1.772460938;0;0.202590247;6.935579818;48.10226741;32.29684674
35.675;1.772460938;0;0.012192024;1.679522784;2.820796781;1.06345208
35.7;1.772460938;0;0.041611949;-0.222417106;0.049469369;1.016062984
35.705;1.772460938;0;0.040499863;-0.822169666;0.67596296;1.024824646
39.59;1.772460938;0;0.110832322;-16.5873984;275.1417858;60.96162793
40.78;1.772460938;0;-0.010241602;0.655452421;0.429617876;0.913109164
42.46;1.772460938;0;0.127194001;-14.56196419;212.0508009;48.05869213
48.37;1.772460938;0;0.178662814;-14.92614328;222.7897533;47.07457378
50.555;1.772460938;0;0.041629312;1.022998046;1.046525002;1.431609316
51.235;1.772460938;0;0.196206318;-11.86821285;140.8544764;38.63710392
53.115;1.772460938;0;0.138135889;-16.36278666;267.7407872;54.34796011
54.075;1.772460938;1;0.140903324;-14.26034789;203.357522;45.01670849
56.855;1.772460938;0;0.100414899;-2.947309101;8.686630935;5.030235921
57.275;1.772460938;0;0.041059656;-1.388115708;1.926865218;1.369292592
58.04;1.772460938;0;0.173853059;-14.09330167;198.6211519;43.8194431
58.715;1.772460938;0;0.01114916;0.288725474;0.0833624;0.261600851
58.825;1.772460938;1;-0.029723123;2.153664396;4.63827033;0.47787846
59.195;1.772460938;0;-0.022419028;-0.944479196;0.892040952;11.76442878
59.235;1.772460938;0;-0.025317074;0.820231149;0.672779138;1.925982873
59.245;1.772460938;1;-0.015853905;1.333635581;1.778583863;1.875949811
59.285;1.772460938;0;0.044315226;0.312144829;0.097434394;1.62315909
59.98;1.772460938;0;0.249336762;2.753390894;7.581161415;35.1606972
61.23;1.772460938;0;0.007619452;1.330118746;1.769215878;0.865074459
62.19;1.772460938;0;0.012428016;1.299973061;1.689929959;1.900021816
63.095;1.772460938;1;-0.014146507;0.154449268;0.023854576;6.187140269
66.98;1.772460938;0;-0.004909094;-0.075236373;0.005660512;2.152431727
71.34;1.772460938;0;0.153078639;-14.81577479;219.5071825;47.47292031
71.345;1.772460938;0;0.078999765;-15.82512103;250.4344557;55.62120041
71.57;1.772460938;0;0.005147942;0.713936744;0.509705674;1.106638466
71.6;1.772460938;0;0.020011943;-0.359612833;0.12932139;0.718432236
71.61;1.772460938;0;0.014569201;-1.045669301;1.093424287;0.676956816
72.455;1.772460938;0;-0.022114121;-0.129370837;0.016736813;1.897093436
72.465;1.772460938;0;-0.021713642;0.650747347;0.42347211;1.654571707
73.435;1.772460938;0;-0.012765974;0.865377595;0.748878381;2.990939388
73.475;1.772460938;0;0.01228544;0.571710306;0.326852674;0.817324364
73.51;1.772460938;0;0.025482292;-0.383919889;0.147394481;0.610878904
74.555;1.772460938;0;0.013180717;-1.972632967;3.891280821;2.035353605
76.48;1.772460938;0;0.16445699;0.293016715;0.085858795;24.94226087
77.785;1.772460938;0;0.012617631;0.681026031;0.463796455;14.94733224
78.41;1.772460938;0;-0.011662988;-2.4481385;5.993382114;2.412301908
78.425;1.772460938;1;-0.038975361;-0.336928019;0.11352049;2.502799898
78.815;1.772460938;0;0.069271158;-5.101245232;26.02270292;7.135130551
80.755;1.772460938;0;-0.024128865;-0.120580769;0.014539722;11.81764668
81.57;1.772460938;0;-0.003622712;1.424889951;2.030311372;2.298717987
82.01;1.772460938;0;0.086990188;3.449114409;11.89639021;6.083686325
83.425;1.772460938;1;0.034850456;-2.137172731;4.567507283;1.429043674
84.035;1.772460938;0;0.098522859;-0.916121464;0.839278538;4.127017461
87.33;1.772460938;0;-0.003482729;1.199813571;1.439552604;3.028080087
88.325;1.772460938;0;-0.012136702;0.15284887;0.023362777;1.611356263
88.345;1.772460938;0;-0.000961527;1.24131177;1.540854911;0.729658753
88.36;1.772460938;0;0.01936796;1.303973701;1.700347412;0.80137945
88.375;1.772460938;0;0.034207455;0.137827444;0.018996404;0.64931703
90.08;1.772460938;0;0.00627665;-15.82928275;250.5661923;64.33731226
90.99;1.772460938;0;0.161904299;-17.09323458;292.1786684;64.01036235
91.245;1.772460938;0;0.030200449;1.036372222;1.074067382;0.936513076
93.18;1.772460938;1;-0.012901184;1.069906951;1.144700884;1.7952906
93.185;1.772460938;0;-0.007551649;1.301482095;1.693855645;1.664901502
93.19;1.772460938;1;-0.001044238;1.538377987;2.366606831;1.542122435
93.205;1.772460938;0;0.024682562;1.866785386;3.484887678;1.720843692
93.225;1.772460938;0;0.053731677;0.200615379;0.04024653;1.618192636
94.06;1.772460938;0;0.079719322;-15.70117511;246.5268998;54.12413645
94.925;1.772460938;1;0.119084674;-0.087773806;0.007704241;5.469713251
95.08;1.772460938;0;0.106613839;-18.72646897;350.6806402;79.71224031
95.34;1.772460938;0;0.031353333;0.901242997;0.812238939;1.641226052
96.44;1.772460938;0;0.01285536;1.871716751;3.503323598;0.927880339
97.18;1.772460938;0;0.105169187;0.335712305;0.112702752;4.805223378
97.605;1.772460938;1;0.043580455;0.205892996;0.042391926;1.41609844
99.82;1.772460938;0;0.005824259;1.434510887;2.057821485;1.330931643
99.83;1.772460938;1;0.020761135;1.536322972;2.360288273;1.464252323
100.66;1.772460938;0;0.193091471;-15.29691845;233.9957142;51.26782229
101.94;1.772460938;0;-0.016770979;0.424091281;0.179853415;1.463640512
101.96;1.772460938;0;-0.003881781;1.110687982;1.233627794;0.931149092
101.995;1.772460938;0;0.038673153;0.32720236;0.107061385;0.846043425
103.04;1.772460938;0;0.033357828;1.987257136;3.949190924;1.495676029
105.04;1.772460938;0;-0.005560337;2.400539211;5.762588505;0.727336491
105.07;1.772460938;0;0.051522238;0.102460471;0.010498148;1.332659879
105.78;1.772460938;0;0.212459662;9.021045221;81.37925688;40.84427847
106.02;1.772460938;0;-0.019379889;0.327790684;0.107446733;1.572195191
106.04;1.772460938;0;-0.006069431;1.334490327;1.780864433;1.006319945
111.065;1.772460938;0;0.014092409;2.022455273;4.090325333;1.024999285
112.055;1.772460938;0;0.001100431;1.707566715;2.915784087;1.080797727
112.095;1.772460938;0;0.049117367;-1.080576407;1.167645371;1.251273925
116.555;1.772460938;0;0.025928946;1.092453902;1.193455528;1.418461716
117.24;1.772460938;0;0.058419656;-16.21925848;263.0643457;60.75761453
118.455;1.772460938;0;0.038157852;0.697125728;0.485984281;1.390111619
120.345;1.772460938;0;0.050522427;0.972970796;0.94667217;2.021096043
121.035;1.772460938;0;0.201402505;9.532391406;90.86648591;39.18475902
124.045;1.772460938;0;0.064430733;0.623287991;0.38848792;2.728583449
124.895;1.772460938;0;-0.006749872;1.420662029;2.0182806;0.934581552
125.49;1.772460938;0;0.174997378;-13.90975698;193.4813394;44.46363875
125.735;1.772460938;0;0.010501646;1.992901473;3.97165628;1.325822588
126.285;1.772460938;0;0.234780104;7.66240873;58.71250755;42.86431484
127.97;1.772460938;0;0.067583967;1.234783979;1.524691476;8.863839694
128.335;1.772460938;0;-0.025552479;0.152383597;0.023220761;1.32849834
128.41;1.772460938;0;0.037316835;-1.570216448;2.465579693;1.178337493
129.35;1.772460938;1;0.046676933;-0.242985184;0.0590418;1.149486782
130.135;1.772460938;0;0.128482746;-15.53207868;241.245468;44.05328536
133.22;1.772460938;0;0.103903718;-14.78089014;218.4747132;50.52638738
133.455;1.772460938;0;0.000225248;0.514286174;0.264490268;0.357085271
133.99;1.772460938;0;0.12643114;-0.326741757;0.106760176;5.743556226
135.385;1.772460938;0;-0.01248445;1.722004178;2.965298389;1.635143524
136.205;1.772460938;0;0.19016018;-14.35047463;205.936122;48.87182341
136.21;1.772460938;0;0.118407807;-16.39213296;268.702023;57.69239381
136.465;1.772460938;0;0.03100404;1.388281089;1.927324381;1.111595138
140.965;1.772460938;0;0.124214848;-16.66781588;277.8160862;58.73634298
142.84;1.772460938;1;0.186371969;-14.73770317;217.1998946;51.64549929
144.07;1.772460938;1;0.042102449;0.341755612;0.116796898;1.078027588
145.005;1.772460938;0;0.01468621;2.799438992;7.836858673;0.541490621
146.025;1.772460938;0;0.03865475;0.594103802;0.352959327;1.020140005
146.04;1.772460938;0;0.039950124;-0.950116552;0.902721463;1.009713122
146.87;1.772460938;0;-0.00965637;-1.148574861;1.31922421;15.91118684
